session_id,subject_id,trial_id,label,window_index,window_start_ms,window_end_ms,sample_count,emg_raw_mean,emg_filt_mean,emg_abs_mean,emg_rms,hr_raw_mean,hr_bpm_mean,flags_or,emg_biceps_mean,emg_biceps_std,emg_biceps_min,emg_biceps_max,emg_biceps_mav,emg_biceps_rms,emg_triceps_mean,emg_triceps_std,emg_triceps_min,emg_triceps_max,emg_triceps_mav,emg_triceps_rms,emg_ant_deltoid_mean,emg_ant_deltoid_std,emg_ant_deltoid_min,emg_ant_deltoid_max,emg_ant_deltoid_mav,emg_ant_deltoid_rms,shoulder_pos_mrad_mean,shoulder_vel_mrad_s_mean,shoulder_torque_mNm_mean,shoulder_temp_c_mean,shoulder_output_current_cmd_a_mean,shoulder_limit_current_a_mean,elbow_pos_mrad_mean,elbow_vel_mrad_s_mean,elbow_torque_mNm_mean,elbow_temp_c_mean,elbow_output_current_cmd_a_mean,elbow_limit_current_a_mean,target_shoulder_output_current_cmd_a_mean,target_shoulder_vel_mrad_s_mean,target_shoulder_pos_mrad_mean,target_elbow_output_current_cmd_a_mean,target_elbow_vel_mrad_s_mean,target_elbow_pos_mrad_mean,stale_count,fault_count,saturated_count
S01_day2,S01,001_rest_01,rest,0,2800,3100,13,,,,,,,0,127.6923076923077,26.911206174221906,66.0,164.0,127.6923076923077,130.4972737705216,0.0,0.0,0.0,0.0,0.0,0.0,0.0,0.0,0.0,0.0,0.0,0.0,0.0,0.0,0.0,255.0,0.0,0.0,0.0,0.0,0.0,255.0,0.0,0.0,0.0,0.0,0.0,0.0,0.0,0.0,13,0,0
S01_day2,S01,001_rest_01,rest,1,2900,3200,8,,,,,,,0,140.5,11.169153951844338,126.0,164.0,140.5,140.9432509913121,0.0,0.0,0.0,0.0,0.0,0.0,0.0,0.0,0.0,0.0,0.0,0.0,0.0,0.0,0.0,255.0,0.0,0.0,0.0,0.0,0.0,255.0,0.0,0.0,0.0,0.0,0.0,0.0,0.0,0.0,8,0,0
S01_day2,S01,001_rest_01,rest,2,3000,3300,3,,,,,,,0,138.0,8.48528137423857,126.0,144.0,138.0,138.26062346163494,0.0,0.0,0.0,0.0,0.0,0.0,0.0,0.0,0.0,0.0,0.0,0.0,0.0,0.0,0.0,255.0,0.0,0.0,0.0,0.0,0.0,255.0,0.0,0.0,0.0,0.0,0.0,0.0,0.0,0.0,3,0,0
S01_day2,S01,002_rest_02,rest,3,3600,3900,1,,,,,,,0,132.0,0.0,132.0,132.0,132.0,132.0,0.0,0.0,0.0,0.0,0.0,0.0,0.0,0.0,0.0,0.0,0.0,0.0,0.0,0.0,0.0,255.0,0.0,0.0,0.0,0.0,0.0,255.0,0.0,0.0,0.0,0.0,0.0,0.0,0.0,0.0,1,0,0
S01_day2,S01,002_rest_02,rest,4,3700,4000,6,,,,,,,0,145.5,9.604686356149273,132.0,153.0,145.5,145.81666571417685,0.0,0.0,0.0,0.0,0.0,0.0,0.0,0.0,0.0,0.0,0.0,0.0,0.0,0.0,0.0,255.0,0.0,0.0,0.0,0.0,0.0,255.0,0.0,0.0,0.0,0.0,0.0,0.0,0.0,0.0,6,0,0
S01_day2,S01,002_rest_02,rest,5,3800,4100,7,,,,,,,0,146.14285714285714,9.030560359588062,132.0,153.0,146.14285714285714,146.42160262162722,0.0,0.0,0.0,0.0,0.0,0.0,0.0,0.0,0.0,0.0,0.0,0.0,0.0,0.0,0.0,255.0,0.0,0.0,0.0,0.0,0.0,255.0,0.0,0.0,0.0,0.0,0.0,0.0,0.0,0.0,7,0,0
S01_day2,S01,002_rest_02,rest,6,3900,4200,6,,,,,,,0,148.5,7.5,132.0,153.0,148.5,148.68927331855517,0.0,0.0,0.0,0.0,0.0,0.0,0.0,0.0,0.0,0.0,0.0,0.0,0.0,0.0,0.0,255.0,0.0,0.0,0.0,0.0,0.0,255.0,0.0,0.0,0.0,0.0,0.0,0.0,0.0,0.0,6,0,0
S01_day2,S01,002_rest_02,rest,7,4000,4300,1,,,,,,,0,150.0,0.0,150.0,150.0,150.0,150.0,0.0,0.0,0.0,0.0,0.0,0.0,0.0,0.0,0.0,0.0,0.0,0.0,0.0,0.0,0.0,255.0,0.0,0.0,0.0,0.0,0.0,255.0,0.0,0.0,0.0,0.0,0.0,0.0,0.0,0.0,1,0,0
S01_day2,S01,003_rest_03,rest,8,4200,4500,1,,,,,,,0,134.0,0.0,134.0,134.0,134.0,134.0,0.0,0.0,0.0,0.0,0.0,0.0,0.0,0.0,0.0,0.0,0.0,0.0,0.0,0.0,0.0,255.0,0.0,0.0,0.0,0.0,0.0,255.0,0.0,0.0,0.0,0.0,0.0,0.0,0.0,0.0,1,0,0
S01_day2,S01,003_rest_03,rest,9,4300,4600,6,,,,,,,0,124.0,8.246211251235321,110.0,134.0,124.0,124.27389106324787,0.0,0.0,0.0,0.0,0.0,0.0,0.0,0.0,0.0,0.0,0.0,0.0,0.0,0.0,0.0,255.0,0.0,0.0,0.0,0.0,0.0,255.0,0.0,0.0,0.0,0.0,0.0,0.0,0.0,0.0,6,0,0
S01_day2,S01,003_rest_03,rest,10,4400,4700,7,,,,,,,0,122.0,9.071147352221454,110.0,134.0,122.0,122.33677171760628,0.0,0.0,0.0,0.0,0.0,0.0,0.0,0.0,0.0,0.0,0.0,0.0,0.0,0.0,0.0,255.0,0.0,0.0,0.0,0.0,0.0,255.0,0.0,0.0,0.0,0.0,0.0,0.0,0.0,0.0,7,0,0
S01_day2,S01,003_rest_03,rest,11,4500,4800,6,,,,,,,0,120.0,8.246211251235321,110.0,134.0,120.0,120.28299963003916,0.0,0.0,0.0,0.0,0.0,0.0,0.0,0.0,0.0,0.0,0.0,0.0,0.0,0.0,0.0,255.0,0.0,0.0,0.0,0.0,0.0,255.0,0.0,0.0,0.0,0.0,0.0,0.0,0.0,0.0,6,0,0
S01_day2,S01,003_rest_03,rest,12,4600,4900,1,,,,,,,0,110.0,0.0,110.0,110.0,110.0,110.0,0.0,0.0,0.0,0.0,0.0,0.0,0.0,0.0,0.0,0.0,0.0,0.0,0.0,0.0,0.0,255.0,0.0,0.0,0.0,0.0,0.0,255.0,0.0,0.0,0.0,0.0,0.0,0.0,0.0,0.0,1,0,0
S01_day2,S01,004_rest_04,rest,13,4800,5100,3,,,,,,,0,150.33333333333334,6.599663291074443,141.0,155.0,150.33333333333334,150.47812687120566,0.0,0.0,0.0,0.0,0.0,0.0,0.0,0.0,0.0,0.0,0.0,0.0,0.0,0.0,0.0,255.0,0.0,0.0,0.0,0.0,0.0,255.0,0.0,0.0,0.0,0.0,0.0,0.0,0.0,0.0,3,0,0
S01_day2,S01,004_rest_04,rest,14,4900,5200,7,,,,,,,0,137.28571428571428,15.826869428865814,114.0,155.0,137.28571428571428,138.19499680834014,0.0,0.0,0.0,0.0,0.0,0.0,0.0,0.0,0.0,0.0,0.0,0.0,0.0,0.0,0.0,255.0,0.0,0.0,0.0,0.0,0.0,255.0,0.0,0.0,0.0,0.0,0.0,0.0,0.0,0.0,7,0,0
S01_day2,S01,004_rest_04,rest,15,5000,5300,7,,,,,,,0,137.28571428571428,15.826869428865814,114.0,155.0,137.28571428571428,138.19499680834014,0.0,0.0,0.0,0.0,0.0,0.0,0.0,0.0,0.0,0.0,0.0,0.0,0.0,0.0,0.0,255.0,0.0,0.0,0.0,0.0,0.0,255.0,0.0,0.0,0.0,0.0,0.0,0.0,0.0,0.0,7,0,0
S01_day2,S01,004_rest_04,rest,16,5100,5400,4,,,,,,,0,127.5,13.5,114.0,141.0,127.5,128.2127138781486,0.0,0.0,0.0,0.0,0.0,0.0,0.0,0.0,0.0,0.0,0.0,0.0,0.0,0.0,0.0,255.0,0.0,0.0,0.0,0.0,0.0,255.0,0.0,0.0,0.0,0.0,0.0,0.0,0.0,0.0,4,0,0
S01_day2,S01,005_rest_05,rest,17,5700,6000,4,,,,,,,0,101.5,7.088723439378913,95.0,112.0,101.5,101.74723583468987,0.0,0.0,0.0,0.0,0.0,0.0,0.0,0.0,0.0,0.0,0.0,0.0,0.0,0.0,0.0,255.0,0.0,0.0,0.0,0.0,0.0,255.0,0.0,0.0,0.0,0.0,0.0,0.0,0.0,0.0,4,0,0
S01_day2,S01,005_rest_05,rest,18,5800,6100,7,,,,,,,0,101.85714285714286,10.439329089397207,83.0,112.0,101.85714285714286,102.3907082837947,0.0,0.0,0.0,0.0,0.0,0.0,0.0,0.0,0.0,0.0,0.0,0.0,0.0,0.0,0.0,255.0,0.0,0.0,0.0,0.0,0.0,255.0,0.0,0.0,0.0,0.0,0.0,0.0,0.0,0.0,7,0,0
S01_day2,S01,005_rest_05,rest,19,5900,6200,7,,,,,,,0,101.85714285714286,10.439329089397207,83.0,112.0,101.85714285714286,102.3907082837947,0.0,0.0,0.0,0.0,0.0,0.0,0.0,0.0,0.0,0.0,0.0,0.0,0.0,0.0,0.0,255.0,0.0,0.0,0.0,0.0,0.0,255.0,0.0,0.0,0.0,0.0,0.0,0.0,0.0,0.0,7,0,0
S01_day2,S01,005_rest_05,rest,20,6000,6300,3,,,,,,,0,102.33333333333333,13.67073110293992,83.0,112.0,102.33333333333333,103.24243313676794,0.0,0.0,0.0,0.0,0.0,0.0,0.0,0.0,0.0,0.0,0.0,0.0,0.0,0.0,0.0,255.0,0.0,0.0,0.0,0.0,0.0,255.0,0.0,0.0,0.0,0.0,0.0,0.0,0.0,0.0,3,0,0
S01_day2,S01,006_rest_06,rest,21,6300,6600,5,,,,,,,0,88.0,5.019960159204453,82.0,93.0,88.0,88.14306552418063,0.0,0.0,0.0,0.0,0.0,0.0,0.0,0.0,0.0,0.0,0.0,0.0,0.0,0.0,0.0,255.0,0.0,0.0,0.0,0.0,0.0,255.0,0.0,0.0,0.0,0.0,0.0,0.0,0.0,0.0,5,0,0
S01_day2,S01,006_rest_06,rest,22,6400,6700,6,,,,,,,0,88.33333333333333,4.642796092394707,82.0,93.0,88.33333333333333,88.45526176171394,0.0,0.0,0.0,0.0,0.0,0.0,0.0,0.0,0.0,0.0,0.0,0.0,0.0,0.0,0.0,255.0,0.0,0.0,0.0,0.0,0.0,255.0,0.0,0.0,0.0,0.0,0.0,0.0,0.0,0.0,6,0,0
S01_day2,S01,006_rest_06,rest,23,6500,6800,6,,,,,,,0,88.33333333333333,4.642796092394707,82.0,93.0,88.33333333333333,88.45526176171394,0.0,0.0,0.0,0.0,0.0,0.0,0.0,0.0,0.0,0.0,0.0,0.0,0.0,0.0,0.0,255.0,0.0,0.0,0.0,0.0,0.0,255.0,0.0,0.0,0.0,0.0,0.0,0.0,0.0,0.0,6,0,0
S01_day2,S01,006_rest_06,rest,24,6600,6900,1,,,,,,,0,90.0,0.0,90.0,90.0,90.0,90.0,0.0,0.0,0.0,0.0,0.0,0.0,0.0,0.0,0.0,0.0,0.0,0.0,0.0,0.0,0.0,255.0,0.0,0.0,0.0,0.0,0.0,255.0,0.0,0.0,0.0,0.0,0.0,0.0,0.0,0.0,1,0,0
S01_day2,S01,007_rest_07,rest,25,6700,7000,2,,,,,,,0,88.0,2.0,86.0,90.0,88.0,88.02272433866155,0.0,0.0,0.0,0.0,0.0,0.0,0.0,0.0,0.0,0.0,0.0,0.0,0.0,0.0,0.0,255.0,0.0,0.0,0.0,0.0,0.0,255.0,0.0,0.0,0.0,0.0,0.0,0.0,0.0,0.0,2,0,0
S01_day2,S01,007_rest_07,rest,26,6800,7100,7,,,,,,,0,92.14285714285714,6.151157183317424,86.0,100.0,92.14285714285714,92.34794452039989,0.0,0.0,0.0,0.0,0.0,0.0,0.0,0.0,0.0,0.0,0.0,0.0,0.0,0.0,0.0,255.0,0.0,0.0,0.0,0.0,0.0,255.0,0.0,0.0,0.0,0.0,0.0,0.0,0.0,0.0,7,0,0
S01_day2,S01,007_rest_07,rest,27,6900,7200,7,,,,,,,0,92.14285714285714,6.151157183317424,86.0,100.0,92.14285714285714,92.34794452039989,0.0,0.0,0.0,0.0,0.0,0.0,0.0,0.0,0.0,0.0,0.0,0.0,0.0,0.0,0.0,255.0,0.0,0.0,0.0,0.0,0.0,255.0,0.0,0.0,0.0,0.0,0.0,0.0,0.0,0.0,7,0,0
S01_day2,S01,007_rest_07,rest,28,7000,7300,5,,,,,,,0,93.8,6.4621977685614045,86.0,100.0,93.8,94.0223377714041,0.0,0.0,0.0,0.0,0.0,0.0,0.0,0.0,0.0,0.0,0.0,0.0,0.0,0.0,0.0,255.0,0.0,0.0,0.0,0.0,0.0,255.0,0.0,0.0,0.0,0.0,0.0,0.0,0.0,0.0,5,0,0
S01_day2,S01,008_rest_08,rest,29,7200,7500,3,,,,,,,0,127.33333333333333,9.428090415820634,114.0,134.0,127.33333333333333,127.68189639360259,0.0,0.0,0.0,0.0,0.0,0.0,0.0,0.0,0.0,0.0,0.0,0.0,0.0,0.0,0.0,255.0,0.0,0.0,0.0,0.0,0.0,255.0,0.0,0.0,0.0,0.0,0.0,0.0,0.0,0.0,3,0,0
S01_day2,S01,008_rest_08,rest,30,7300,7600,8,,,,,,,0,115.875,11.162856937182346,104.0,134.0,115.875,116.4114470316386,0.0,0.0,0.0,0.0,0.0,0.0,0.0,0.0,0.0,0.0,0.0,0.0,0.0,0.0,0.0,255.0,0.0,0.0,0.0,0.0,0.0,255.0,0.0,0.0,0.0,0.0,0.0,0.0,0.0,0.0,8,0,0
S01_day2,S01,008_rest_08,rest,31,7400,7700,8,,,,,,,0,115.875,11.162856937182346,104.0,134.0,115.875,116.4114470316386,0.0,0.0,0.0,0.0,0.0,0.0,0.0,0.0,0.0,0.0,0.0,0.0,0.0,0.0,0.0,255.0,0.0,0.0,0.0,0.0,0.0,255.0,0.0,0.0,0.0,0.0,0.0,0.0,0.0,0.0,8,0,0
S01_day2,S01,008_rest_08,rest,32,7500,7800,5,,,,,,,0,109.0,4.47213595499958,104.0,114.0,109.0,109.09170454255447,0.0,0.0,0.0,0.0,0.0,0.0,0.0,0.0,0.0,0.0,0.0,0.0,0.0,0.0,0.0,255.0,0.0,0.0,0.0,0.0,0.0,255.0,0.0,0.0,0.0,0.0,0.0,0.0,0.0,0.0,5,0,0
S01_day2,S01,009_rest_09,rest,33,7600,7900,5,,,,,,,0,71.2,5.114684741017769,65.0,76.0,71.2,71.38347147624582,0.0,0.0,0.0,0.0,0.0,0.0,0.0,0.0,0.0,0.0,0.0,0.0,0.0,0.0,0.0,255.0,0.0,0.0,0.0,0.0,0.0,255.0,0.0,0.0,0.0,0.0,0.0,0.0,0.0,0.0,5,0,0
S01_day2,S01,009_rest_09,rest,34,7700,8000,10,,,,,,,0,74.4,5.4808758424178885,65.0,84.0,74.4,74.60160856174618,0.0,0.0,0.0,0.0,0.0,0.0,0.0,0.0,0.0,0.0,0.0,0.0,0.0,0.0,0.0,255.0,0.0,0.0,0.0,0.0,0.0,255.0,0.0,0.0,0.0,0.0,0.0,0.0,0.0,0.0,10,0,0
S01_day2,S01,009_rest_09,rest,35,7800,8100,15,,,,,,,0,82.0,13.201010062365178,65.0,106.0,82.0,83.05580453325743,0.0,0.0,0.0,0.0,0.0,0.0,0.0,0.0,0.0,0.0,0.0,0.0,0.0,0.0,0.0,255.0,0.0,0.0,0.0,0.0,0.0,255.0,0.0,0.0,0.0,0.0,0.0,0.0,0.0,0.0,15,0,0
S01_day2,S01,009_rest_09,rest,36,7900,8200,15,,,,,,,0,91.53333333333333,12.883408796674203,74.0,106.0,91.53333333333333,92.43556314175477,0.0,0.0,0.0,0.0,0.0,0.0,0.0,0.0,0.0,0.0,0.0,0.0,0.0,0.0,0.0,255.0,0.0,0.0,0.0,0.0,0.0,255.0,0.0,0.0,0.0,0.0,0.0,0.0,0.0,0.0,15,0,0
S01_day2,S01,009_rest_09,rest,37,8000,8300,15,,,,,,,0,96.66666666666667,10.044346115546244,83.0,106.0,96.66666666666667,97.18710476875692,0.0,0.0,0.0,0.0,0.0,0.0,0.0,0.0,0.0,0.0,0.0,0.0,0.0,0.0,0.0,255.0,0.0,0.0,0.0,0.0,0.0,255.0,0.0,0.0,0.0,0.0,0.0,0.0,0.0,0.0,15,0,0
S01_day2,S01,009_rest_09,rest,38,8100,8400,15,,,,,,,0,96.33333333333333,8.51404069105198,83.0,106.0,96.33333333333333,96.70884137450929,0.0,0.0,0.0,0.0,0.0,0.0,0.0,0.0,0.0,0.0,0.0,0.0,0.0,0.0,0.0,255.0,0.0,0.0,0.0,0.0,0.0,255.0,0.0,0.0,0.0,0.0,0.0,0.0,0.0,0.0,15,0,0
S01_day2,S01,009_rest_09,rest,39,8200,8500,15,,,,,,,0,92.4,7.570116687784057,83.0,104.0,92.4,92.70958238858951,0.0,0.0,0.0,0.0,0.0,0.0,0.0,0.0,0.0,0.0,0.0,0.0,0.0,0.0,0.0,255.0,0.0,0.0,0.0,0.0,0.0,255.0,0.0,0.0,0.0,0.0,0.0,0.0,0.0,0.0,15,0,0
S01_day2,S01,009_rest_09,rest,40,8300,8600,15,,,,,,,0,89.66666666666667,7.039570693980958,79.0,103.0,89.66666666666667,89.94257427195792,0.0,0.0,0.0,0.0,0.0,0.0,0.0,0.0,0.0,0.0,0.0,0.0,0.0,0.0,0.0,255.0,0.0,0.0,0.0,0.0,0.0,255.0,0.0,0.0,0.0,0.0,0.0,0.0,0.0,0.0,15,0,0
S01_day2,S01,009_rest_09,rest,41,8400,8700,15,,,,,,,0,86.73333333333333,5.836284967530477,79.0,94.0,86.73333333333333,86.9294733294372,0.0,0.0,0.0,0.0,0.0,0.0,0.0,0.0,0.0,0.0,0.0,0.0,0.0,0.0,0.0,255.0,0.0,0.0,0.0,0.0,0.0,255.0,0.0,0.0,0.0,0.0,0.0,0.0,0.0,0.0,15,0,0
S01_day2,S01,009_rest_09,rest,42,8500,8800,15,,,,,,,0,90.06666666666666,8.488947062046165,79.0,105.0,90.06666666666666,90.465831487179,0.0,0.0,0.0,0.0,0.0,0.0,0.0,0.0,0.0,0.0,0.0,0.0,0.0,0.0,0.0,255.0,0.0,0.0,0.0,0.0,0.0,255.0,0.0,0.0,0.0,0.0,0.0,0.0,0.0,0.0,15,0,0
S01_day2,S01,009_rest_09,rest,43,8600,8900,15,,,,,,,0,93.86666666666666,7.597075460699042,79.0,105.0,93.86666666666666,94.17359856491981,0.0,0.0,0.0,0.0,0.0,0.0,0.0,0.0,0.0,0.0,0.0,0.0,0.0,0.0,0.0,255.0,0.0,0.0,0.0,0.0,0.0,255.0,0.0,0.0,0.0,0.0,0.0,0.0,0.0,0.0,15,0,0
S01_day2,S01,009_rest_09,rest,44,8700,9000,13,,,,,,,0,97.6923076923077,5.496636949215337,91.0,105.0,97.6923076923077,97.84681905918046,0.0,0.0,0.0,0.0,0.0,0.0,0.0,0.0,0.0,0.0,0.0,0.0,0.0,0.0,0.0,255.0,0.0,0.0,0.0,0.0,0.0,255.0,0.0,0.0,0.0,0.0,0.0,0.0,0.0,0.0,13,0,0
S01_day2,S01,009_rest_09,rest,45,8800,9100,8,,,,,,,0,97.5,4.949747468305833,91.0,103.0,97.5,97.6255601776502,0.0,0.0,0.0,0.0,0.0,0.0,0.0,0.0,0.0,0.0,0.0,0.0,0.0,0.0,0.0,255.0,0.0,0.0,0.0,0.0,0.0,255.0,0.0,0.0,0.0,0.0,0.0,0.0,0.0,0.0,8,0,0
S01_day2,S01,009_rest_09,rest,46,8900,9200,3,,,,,,,0,99.66666666666667,4.714045207910316,93.0,103.0,99.66666666666667,99.7780871066722,0.0,0.0,0.0,0.0,0.0,0.0,0.0,0.0,0.0,0.0,0.0,0.0,0.0,0.0,0.0,255.0,0.0,0.0,0.0,0.0,0.0,255.0,0.0,0.0,0.0,0.0,0.0,0.0,0.0,0.0,3,0,0
S01_day2,S01,010_rest_10,rest,47,9300,9600,2,,,,,,,0,83.0,7.0,76.0,90.0,83.0,83.2946576918352,0.0,0.0,0.0,0.0,0.0,0.0,0.0,0.0,0.0,0.0,0.0,0.0,0.0,0.0,0.0,255.0,0.0,0.0,0.0,0.0,0.0,255.0,0.0,0.0,0.0,0.0,0.0,0.0,0.0,0.0,2,0,0
S01_day2,S01,010_rest_10,rest,48,9400,9700,7,,,,,,,0,86.42857142857143,4.593695768803865,76.0,90.0,86.42857142857143,86.55056325639943,0.0,0.0,0.0,0.0,0.0,0.0,0.0,0.0,0.0,0.0,0.0,0.0,0.0,0.0,0.0,255.0,0.0,0.0,0.0,0.0,0.0,255.0,0.0,0.0,0.0,0.0,0.0,0.0,0.0,0.0,7,0,0
S01_day2,S01,010_rest_10,rest,49,9500,9800,7,,,,,,,0,86.42857142857143,4.593695768803865,76.0,90.0,86.42857142857143,86.55056325639943,0.0,0.0,0.0,0.0,0.0,0.0,0.0,0.0,0.0,0.0,0.0,0.0,0.0,0.0,0.0,255.0,0.0,0.0,0.0,0.0,0.0,255.0,0.0,0.0,0.0,0.0,0.0,0.0,0.0,0.0,7,0,0
S01_day2,S01,010_rest_10,rest,50,9600,9900,5,,,,,,,0,87.8,1.8330302779823362,86.0,90.0,87.8,87.8191323118146,0.0,0.0,0.0,0.0,0.0,0.0,0.0,0.0,0.0,0.0,0.0,0.0,0.0,0.0,0.0,255.0,0.0,0.0,0.0,0.0,0.0,255.0,0.0,0.0,0.0,0.0,0.0,0.0,0.0,0.0,5,0,0
S01_day2,S01,011_rest_11,rest,51,9900,10200,4,,,,,,,0,94.5,4.330127018922194,92.0,102.0,94.5,94.59915433025816,0.0,0.0,0.0,0.0,0.0,0.0,0.0,0.0,0.0,0.0,0.0,0.0,0.0,0.0,0.0,255.0,0.0,0.0,0.0,0.0,0.0,255.0,0.0,0.0,0.0,0.0,0.0,0.0,0.0,0.0,4,0,0
S01_day2,S01,011_rest_11,rest,52,10000,10300,6,,,,,,,0,93.66666666666667,3.72677996249965,92.0,102.0,93.66666666666667,93.74077732413645,0.0,0.0,0.0,0.0,0.0,0.0,0.0,0.0,0.0,0.0,0.0,0.0,0.0,0.0,0.0,255.0,0.0,0.0,0.0,0.0,0.0,255.0,0.0,0.0,0.0,0.0,0.0,0.0,0.0,0.0,6,0,0
S01_day2,S01,011_rest_11,rest,53,10100,10400,6,,,,,,,0,93.66666666666667,3.72677996249965,92.0,102.0,93.66666666666667,93.74077732413645,0.0,0.0,0.0,0.0,0.0,0.0,0.0,0.0,0.0,0.0,0.0,0.0,0.0,0.0,0.0,255.0,0.0,0.0,0.0,0.0,0.0,255.0,0.0,0.0,0.0,0.0,0.0,0.0,0.0,0.0,6,0,0
S01_day2,S01,011_rest_11,rest,54,10200,10500,2,,,,,,,0,92.0,0.0,92.0,92.0,92.0,92.0,0.0,0.0,0.0,0.0,0.0,0.0,0.0,0.0,0.0,0.0,0.0,0.0,0.0,0.0,0.0,255.0,0.0,0.0,0.0,0.0,0.0,255.0,0.0,0.0,0.0,0.0,0.0,0.0,0.0,0.0,2,0,0
S01_day2,S01,012_rest_12,rest,55,10400,10700,5,,,,,,,0,84.6,1.9595917942265424,83.0,87.0,84.6,84.62269199216011,0.0,0.0,0.0,0.0,0.0,0.0,0.0,0.0,0.0,0.0,0.0,0.0,0.0,0.0,0.0,255.0,0.0,0.0,0.0,0.0,0.0,255.0,0.0,0.0,0.0,0.0,0.0,0.0,0.0,0.0,5,0,0
S01_day2,S01,012_rest_12,rest,56,10500,10800,8,,,,,,,0,79.75,6.475916923494309,71.0,87.0,79.75,80.01249902359005,0.0,0.0,0.0,0.0,0.0,0.0,0.0,0.0,0.0,0.0,0.0,0.0,0.0,0.0,0.0,255.0,0.0,0.0,0.0,0.0,0.0,255.0,0.0,0.0,0.0,0.0,0.0,0.0,0.0,0.0,8,0,0
S01_day2,S01,012_rest_12,rest,57,10600,10900,8,,,,,,,0,79.75,6.475916923494309,71.0,87.0,79.75,80.01249902359005,0.0,0.0,0.0,0.0,0.0,0.0,0.0,0.0,0.0,0.0,0.0,0.0,0.0,0.0,0.0,255.0,0.0,0.0,0.0,0.0,0.0,255.0,0.0,0.0,0.0,0.0,0.0,0.0,0.0,0.0,8,0,0
S01_day2,S01,012_rest_12,rest,58,10700,11000,3,,,,,,,0,71.66666666666667,0.9428090415820634,71.0,73.0,71.66666666666667,71.67286794875729,0.0,0.0,0.0,0.0,0.0,0.0,0.0,0.0,0.0,0.0,0.0,0.0,0.0,0.0,0.0,255.0,0.0,0.0,0.0,0.0,0.0,255.0,0.0,0.0,0.0,0.0,0.0,0.0,0.0,0.0,3,0,0
S01_day2,S01,013_rest_13,rest,59,10900,11200,4,,,,,,,0,83.5,3.774917217635375,80.0,89.0,83.5,83.58528578643492,0.0,0.0,0.0,0.0,0.0,0.0,0.0,0.0,0.0,0.0,0.0,0.0,0.0,0.0,0.0,255.0,0.0,0.0,0.0,0.0,0.0,255.0,0.0,0.0,0.0,0.0,0.0,0.0,0.0,0.0,4,0,0
S01_day2,S01,013_rest_13,rest,60,11000,11300,7,,,,,,,0,87.42857142857143,8.893932809299073,80.0,108.0,87.42857142857143,87.87978802237261,0.0,0.0,0.0,0.0,0.0,0.0,0.0,0.0,0.0,0.0,0.0,0.0,0.0,0.0,0.0,255.0,0.0,0.0,0.0,0.0,0.0,255.0,0.0,0.0,0.0,0.0,0.0,0.0,0.0,0.0,7,0,0
S01_day2,S01,013_rest_13,rest,61,11100,11400,7,,,,,,,0,87.42857142857143,8.893932809299073,80.0,108.0,87.42857142857143,87.87978802237261,0.0,0.0,0.0,0.0,0.0,0.0,0.0,0.0,0.0,0.0,0.0,0.0,0.0,0.0,0.0,255.0,0.0,0.0,0.0,0.0,0.0,255.0,0.0,0.0,0.0,0.0,0.0,0.0,0.0,0.0,7,0,0
S01_day2,S01,013_rest_13,rest,62,11200,11500,3,,,,,,,0,92.66666666666667,10.842303978193728,85.0,108.0,92.66666666666667,93.29880313630323,0.0,0.0,0.0,0.0,0.0,0.0,0.0,0.0,0.0,0.0,0.0,0.0,0.0,0.0,0.0,255.0,0.0,0.0,0.0,0.0,0.0,255.0,0.0,0.0,0.0,0.0,0.0,0.0,0.0,0.0,3,0,0
S01_day2,S01,014_rest_14,rest,63,11600,11900,4,,,,,,,0,88.0,6.123724356957945,78.0,93.0,88.0,88.21281086100817,0.0,0.0,0.0,0.0,0.0,0.0,0.0,0.0,0.0,0.0,0.0,0.0,0.0,0.0,0.0,255.0,0.0,0.0,0.0,0.0,0.0,255.0,0.0,0.0,0.0,0.0,0.0,0.0,0.0,0.0,4,0,0
S01_day2,S01,014_rest_14,rest,64,11700,12000,7,,,,,,,0,86.42857142857143,6.020373573058708,77.0,93.0,86.42857142857143,86.63799892162132,0.0,0.0,0.0,0.0,0.0,0.0,0.0,0.0,0.0,0.0,0.0,0.0,0.0,0.0,0.0,255.0,0.0,0.0,0.0,0.0,0.0,255.0,0.0,0.0,0.0,0.0,0.0,0.0,0.0,0.0,7,0,0
S01_day2,S01,014_rest_14,rest,65,11800,12100,7,,,,,,,0,86.42857142857143,6.020373573058708,77.0,93.0,86.42857142857143,86.63799892162132,0.0,0.0,0.0,0.0,0.0,0.0,0.0,0.0,0.0,0.0,0.0,0.0,0.0,0.0,0.0,255.0,0.0,0.0,0.0,0.0,0.0,255.0,0.0,0.0,0.0,0.0,0.0,0.0,0.0,0.0,7,0,0
S01_day2,S01,014_rest_14,rest,66,11900,12200,3,,,,,,,0,84.33333333333333,5.185449728701348,77.0,88.0,84.33333333333333,84.49260322655469,0.0,0.0,0.0,0.0,0.0,0.0,0.0,0.0,0.0,0.0,0.0,0.0,0.0,0.0,0.0,255.0,0.0,0.0,0.0,0.0,0.0,255.0,0.0,0.0,0.0,0.0,0.0,0.0,0.0,0.0,3,0,0
S01_day2,S01,015_rest_15,rest,67,12100,12400,3,,,,,,,0,82.33333333333333,6.128258770283412,78.0,91.0,82.33333333333333,82.56108849411648,0.0,0.0,0.0,0.0,0.0,0.0,0.0,0.0,0.0,0.0,0.0,0.0,0.0,0.0,0.0,255.0,0.0,0.0,0.0,0.0,0.0,255.0,0.0,0.0,0.0,0.0,0.0,0.0,0.0,0.0,3,0,0
S01_day2,S01,015_rest_15,rest,68,12200,12500,7,,,,,,,0,88.42857142857143,6.800360134521088,78.0,95.0,88.42857142857143,88.68966762175369,0.0,0.0,0.0,0.0,0.0,0.0,0.0,0.0,0.0,0.0,0.0,0.0,0.0,0.0,0.0,255.0,0.0,0.0,0.0,0.0,0.0,255.0,0.0,0.0,0.0,0.0,0.0,0.0,0.0,0.0,7,0,0
S01_day2,S01,015_rest_15,rest,69,12300,12600,7,,,,,,,0,88.42857142857143,6.800360134521088,78.0,95.0,88.42857142857143,88.68966762175369,0.0,0.0,0.0,0.0,0.0,0.0,0.0,0.0,0.0,0.0,0.0,0.0,0.0,0.0,0.0,255.0,0.0,0.0,0.0,0.0,0.0,255.0,0.0,0.0,0.0,0.0,0.0,0.0,0.0,0.0,7,0,0
S01_day2,S01,015_rest_15,rest,70,12400,12700,4,,,,,,,0,93.0,2.0,91.0,95.0,93.0,93.02150289046077,0.0,0.0,0.0,0.0,0.0,0.0,0.0,0.0,0.0,0.0,0.0,0.0,0.0,0.0,0.0,255.0,0.0,0.0,0.0,0.0,0.0,255.0,0.0,0.0,0.0,0.0,0.0,0.0,0.0,0.0,4,0,0
S01_day2,S01,016_rest_16,rest,71,12700,13000,4,,,,,,,0,78.75,8.166241485530538,68.0,91.0,78.75,79.1722805027113,0.0,0.0,0.0,0.0,0.0,0.0,0.0,0.0,0.0,0.0,0.0,0.0,0.0,0.0,0.0,255.0,0.0,0.0,0.0,0.0,0.0,255.0,0.0,0.0,0.0,0.0,0.0,0.0,0.0,0.0,4,0,0
S01_day2,S01,016_rest_16,rest,72,12800,13100,6,,,,,,,0,75.16666666666667,8.374896350934074,68.0,91.0,75.16666666666667,75.63178344232448,0.0,0.0,0.0,0.0,0.0,0.0,0.0,0.0,0.0,0.0,0.0,0.0,0.0,0.0,0.0,255.0,0.0,0.0,0.0,0.0,0.0,255.0,0.0,0.0,0.0,0.0,0.0,0.0,0.0,0.0,6,0,0
S01_day2,S01,016_rest_16,rest,73,12900,13200,6,,,,,,,0,75.16666666666667,8.374896350934074,68.0,91.0,75.16666666666667,75.63178344232448,0.0,0.0,0.0,0.0,0.0,0.0,0.0,0.0,0.0,0.0,0.0,0.0,0.0,0.0,0.0,255.0,0.0,0.0,0.0,0.0,0.0,255.0,0.0,0.0,0.0,0.0,0.0,0.0,0.0,0.0,6,0,0
S01_day2,S01,016_rest_16,rest,74,13000,13300,2,,,,,,,0,68.0,0.0,68.0,68.0,68.0,68.0,0.0,0.0,0.0,0.0,0.0,0.0,0.0,0.0,0.0,0.0,0.0,0.0,0.0,0.0,0.0,255.0,0.0,0.0,0.0,0.0,0.0,255.0,0.0,0.0,0.0,0.0,0.0,0.0,0.0,0.0,2,0,0
S01_day2,S01,017_rest_17,rest,75,13200,13500,4,,,,,,,0,77.75,1.920286436967152,76.0,81.0,77.75,77.77371021109897,0.0,0.0,0.0,0.0,0.0,0.0,0.0,0.0,0.0,0.0,0.0,0.0,0.0,0.0,0.0,255.0,0.0,0.0,0.0,0.0,0.0,255.0,0.0,0.0,0.0,0.0,0.0,0.0,0.0,0.0,4,0,0
S01_day2,S01,017_rest_17,rest,76,13300,13600,7,,,,,,,0,76.57142857142857,5.900536122303824,63.0,81.0,76.57142857142857,76.79843748410511,0.0,0.0,0.0,0.0,0.0,0.0,0.0,0.0,0.0,0.0,0.0,0.0,0.0,0.0,0.0,255.0,0.0,0.0,0.0,0.0,0.0,255.0,0.0,0.0,0.0,0.0,0.0,0.0,0.0,0.0,7,0,0
S01_day2,S01,017_rest_17,rest,77,13400,13700,7,,,,,,,0,76.57142857142857,5.900536122303824,63.0,81.0,76.57142857142857,76.79843748410511,0.0,0.0,0.0,0.0,0.0,0.0,0.0,0.0,0.0,0.0,0.0,0.0,0.0,0.0,0.0,255.0,0.0,0.0,0.0,0.0,0.0,255.0,0.0,0.0,0.0,0.0,0.0,0.0,0.0,0.0,7,0,0
S01_day2,S01,017_rest_17,rest,78,13500,13800,3,,,,,,,0,75.0,8.48528137423857,63.0,81.0,75.0,75.47847375245475,0.0,0.0,0.0,0.0,0.0,0.0,0.0,0.0,0.0,0.0,0.0,0.0,0.0,0.0,0.0,255.0,0.0,0.0,0.0,0.0,0.0,255.0,0.0,0.0,0.0,0.0,0.0,0.0,0.0,0.0,3,0,0
S01_day2,S01,018_rest_18,rest,79,13600,13900,1,,,,,,,0,59.0,0.0,59.0,59.0,59.0,59.0,0.0,0.0,0.0,0.0,0.0,0.0,0.0,0.0,0.0,0.0,0.0,0.0,0.0,0.0,0.0,255.0,0.0,0.0,0.0,0.0,0.0,255.0,0.0,0.0,0.0,0.0,0.0,0.0,0.0,0.0,1,0,0
S01_day2,S01,018_rest_18,rest,80,13700,14000,6,,,,,,,0,43.833333333333336,8.64902049688608,36.0,59.0,43.833333333333336,44.67848102461259,0.0,0.0,0.0,0.0,0.0,0.0,0.0,0.0,0.0,0.0,0.0,0.0,0.0,0.0,0.0,255.0,0.0,0.0,0.0,0.0,0.0,255.0,0.0,0.0,0.0,0.0,0.0,0.0,0.0,0.0,6,0,0
S01_day2,S01,018_rest_18,rest,81,13800,14100,7,,,,,,,0,47.285714285714285,11.646143269822181,36.0,68.0,47.285714285714285,48.6987826189878,0.0,0.0,0.0,0.0,0.0,0.0,0.0,0.0,0.0,0.0,0.0,0.0,0.0,0.0,0.0,255.0,0.0,0.0,0.0,0.0,0.0,255.0,0.0,0.0,0.0,0.0,0.0,0.0,0.0,0.0,7,0,0
S01_day2,S01,018_rest_18,rest,82,13900,14200,6,,,,,,,0,45.333333333333336,11.469767022723502,36.0,68.0,45.333333333333336,46.76180777800048,0.0,0.0,0.0,0.0,0.0,0.0,0.0,0.0,0.0,0.0,0.0,0.0,0.0,0.0,0.0,255.0,0.0,0.0,0.0,0.0,0.0,255.0,0.0,0.0,0.0,0.0,0.0,0.0,0.0,0.0,6,0,0
S01_day2,S01,018_rest_18,rest,83,14000,14300,1,,,,,,,0,68.0,0.0,68.0,68.0,68.0,68.0,0.0,0.0,0.0,0.0,0.0,0.0,0.0,0.0,0.0,0.0,0.0,0.0,0.0,0.0,0.0,255.0,0.0,0.0,0.0,0.0,0.0,255.0,0.0,0.0,0.0,0.0,0.0,0.0,0.0,0.0,1,0,0
S01_day2,S01,019_rest_19,rest,84,14100,14400,1,,,,,,,0,54.0,0.0,54.0,54.0,54.0,54.0,0.0,0.0,0.0,0.0,0.0,0.0,0.0,0.0,0.0,0.0,0.0,0.0,0.0,0.0,0.0,255.0,0.0,0.0,0.0,0.0,0.0,255.0,0.0,0.0,0.0,0.0,0.0,0.0,0.0,0.0,1,0,0
S01_day2,S01,019_rest_19,rest,85,14200,14500,6,,,,,,,0,68.0,7.211102550927978,54.0,74.0,68.0,68.38128398911503,0.0,0.0,0.0,0.0,0.0,0.0,0.0,0.0,0.0,0.0,0.0,0.0,0.0,0.0,0.0,255.0,0.0,0.0,0.0,0.0,0.0,255.0,0.0,0.0,0.0,0.0,0.0,0.0,0.0,0.0,6,0,0
S01_day2,S01,019_rest_19,rest,86,14300,14600,7,,,,,,,0,66.14285714285714,8.078694580342109,54.0,74.0,66.14285714285714,66.63439695189608,0.0,0.0,0.0,0.0,0.0,0.0,0.0,0.0,0.0,0.0,0.0,0.0,0.0,0.0,0.0,255.0,0.0,0.0,0.0,0.0,0.0,255.0,0.0,0.0,0.0,0.0,0.0,0.0,0.0,0.0,7,0,0
S01_day2,S01,019_rest_19,rest,87,14400,14700,6,,,,,,,0,68.16666666666667,6.890008869531463,55.0,74.0,68.16666666666667,68.51398883926309,0.0,0.0,0.0,0.0,0.0,0.0,0.0,0.0,0.0,0.0,0.0,0.0,0.0,0.0,0.0,255.0,0.0,0.0,0.0,0.0,0.0,255.0,0.0,0.0,0.0,0.0,0.0,0.0,0.0,0.0,6,0,0
S01_day2,S01,019_rest_19,rest,88,14500,14800,1,,,,,,,0,55.0,0.0,55.0,55.0,55.0,55.0,0.0,0.0,0.0,0.0,0.0,0.0,0.0,0.0,0.0,0.0,0.0,0.0,0.0,0.0,0.0,255.0,0.0,0.0,0.0,0.0,0.0,255.0,0.0,0.0,0.0,0.0,0.0,0.0,0.0,0.0,1,0,0
S01_day2,S01,020_rest_20,rest,89,14600,14900,1,,,,,,,0,65.0,0.0,65.0,65.0,65.0,65.0,0.0,0.0,0.0,0.0,0.0,0.0,0.0,0.0,0.0,0.0,0.0,0.0,0.0,0.0,0.0,255.0,0.0,0.0,0.0,0.0,0.0,255.0,0.0,0.0,0.0,0.0,0.0,0.0,0.0,0.0,1,0,0
S01_day2,S01,020_rest_20,rest,90,14700,15000,6,,,,,,,0,60.833333333333336,9.13631338244383,48.0,68.0,60.833333333333336,61.515580682187064,0.0,0.0,0.0,0.0,0.0,0.0,0.0,0.0,0.0,0.0,0.0,0.0,0.0,0.0,0.0,255.0,0.0,0.0,0.0,0.0,0.0,255.0,0.0,0.0,0.0,0.0,0.0,0.0,0.0,0.0,6,0,0
S01_day2,S01,020_rest_20,rest,91,14800,15100,7,,,,,,,0,62.714285714285715,9.632004474878613,48.0,74.0,62.714285714285715,63.44964257469968,0.0,0.0,0.0,0.0,0.0,0.0,0.0,0.0,0.0,0.0,0.0,0.0,0.0,0.0,0.0,255.0,0.0,0.0,0.0,0.0,0.0,255.0,0.0,0.0,0.0,0.0,0.0,0.0,0.0,0.0,7,0,0
S01_day2,S01,020_rest_20,rest,92,14900,15200,6,,,,,,,0,62.333333333333336,10.354816378006046,48.0,74.0,62.333333333333336,63.18755151662918,0.0,0.0,0.0,0.0,0.0,0.0,0.0,0.0,0.0,0.0,0.0,0.0,0.0,0.0,0.0,255.0,0.0,0.0,0.0,0.0,0.0,255.0,0.0,0.0,0.0,0.0,0.0,0.0,0.0,0.0,6,0,0
S01_day2,S01,020_rest_20,rest,93,15000,15300,1,,,,,,,0,74.0,0.0,74.0,74.0,74.0,74.0,0.0,0.0,0.0,0.0,0.0,0.0,0.0,0.0,0.0,0.0,0.0,0.0,0.0,0.0,0.0,255.0,0.0,0.0,0.0,0.0,0.0,255.0,0.0,0.0,0.0,0.0,0.0,0.0,0.0,0.0,1,0,0
S01_day2,S01,021_rest_21,rest,94,15100,15400,3,,,,,,,0,84.0,0.0,84.0,84.0,84.0,84.0,0.0,0.0,0.0,0.0,0.0,0.0,0.0,0.0,0.0,0.0,0.0,0.0,0.0,0.0,0.0,255.0,0.0,0.0,0.0,0.0,0.0,255.0,0.0,0.0,0.0,0.0,0.0,0.0,0.0,0.0,3,0,0
S01_day2,S01,021_rest_21,rest,95,15200,15500,7,,,,,,,0,87.71428571428571,7.185586479976738,82.0,99.0,87.71428571428571,88.00811650881168,0.0,0.0,0.0,0.0,0.0,0.0,0.0,0.0,0.0,0.0,0.0,0.0,0.0,0.0,0.0,255.0,0.0,0.0,0.0,0.0,0.0,255.0,0.0,0.0,0.0,0.0,0.0,0.0,0.0,0.0,7,0,0
S01_day2,S01,021_rest_21,rest,96,15300,15600,7,,,,,,,0,87.71428571428571,7.185586479976738,82.0,99.0,87.71428571428571,88.00811650881168,0.0,0.0,0.0,0.0,0.0,0.0,0.0,0.0,0.0,0.0,0.0,0.0,0.0,0.0,0.0,255.0,0.0,0.0,0.0,0.0,0.0,255.0,0.0,0.0,0.0,0.0,0.0,0.0,0.0,0.0,7,0,0
S01_day2,S01,021_rest_21,rest,97,15400,15700,4,,,,,,,0,90.5,8.5,82.0,99.0,90.5,90.89829481348922,0.0,0.0,0.0,0.0,0.0,0.0,0.0,0.0,0.0,0.0,0.0,0.0,0.0,0.0,0.0,255.0,0.0,0.0,0.0,0.0,0.0,255.0,0.0,0.0,0.0,0.0,0.0,0.0,0.0,0.0,4,0,0
S01_day2,S01,022_rest_22,rest,98,15700,16000,5,,,,,,,0,75.6,1.9595917942265424,74.0,78.0,75.6,75.6253925609646,0.0,0.0,0.0,0.0,0.0,0.0,0.0,0.0,0.0,0.0,0.0,0.0,0.0,0.0,0.0,255.0,0.0,0.0,0.0,0.0,0.0,255.0,0.0,0.0,0.0,0.0,0.0,0.0,0.0,0.0,5,0,0
S01_day2,S01,022_rest_22,rest,99,15800,16100,8,,,,,,,0,78.375,3.998046397929869,74.0,85.0,78.375,78.47690743142215,0.0,0.0,0.0,0.0,0.0,0.0,0.0,0.0,0.0,0.0,0.0,0.0,0.0,0.0,0.0,255.0,0.0,0.0,0.0,0.0,0.0,255.0,0.0,0.0,0.0,0.0,0.0,0.0,0.0,0.0,8,0,0
S01_day2,S01,022_rest_22,rest,100,15900,16200,8,,,,,,,0,78.375,3.998046397929869,74.0,85.0,78.375,78.47690743142215,0.0,0.0,0.0,0.0,0.0,0.0,0.0,0.0,0.0,0.0,0.0,0.0,0.0,0.0,0.0,255.0,0.0,0.0,0.0,0.0,0.0,255.0,0.0,0.0,0.0,0.0,0.0,0.0,0.0,0.0,8,0,0
S01_day2,S01,022_rest_22,rest,101,16000,16300,3,,,,,,,0,83.0,1.4142135623730951,82.0,85.0,83.0,83.01204731844649,0.0,0.0,0.0,0.0,0.0,0.0,0.0,0.0,0.0,0.0,0.0,0.0,0.0,0.0,0.0,255.0,0.0,0.0,0.0,0.0,0.0,255.0,0.0,0.0,0.0,0.0,0.0,0.0,0.0,0.0,3,0,0
S01_day2,S01,023_rest_23,rest,102,16200,16500,4,,,,,,,0,89.25,0.4330127018922193,89.0,90.0,89.25,89.25105041398673,0.0,0.0,0.0,0.0,0.0,0.0,0.0,0.0,0.0,0.0,0.0,0.0,0.0,0.0,0.0,255.0,0.0,0.0,0.0,0.0,0.0,255.0,0.0,0.0,0.0,0.0,0.0,0.0,0.0,0.0,4,0,0
S01_day2,S01,023_rest_23,rest,103,16300,16600,6,,,,,,,0,86.83333333333333,3.435921354681384,82.0,90.0,86.83333333333333,86.9012849924173,0.0,0.0,0.0,0.0,0.0,0.0,0.0,0.0,0.0,0.0,0.0,0.0,0.0,0.0,0.0,255.0,0.0,0.0,0.0,0.0,0.0,255.0,0.0,0.0,0.0,0.0,0.0,0.0,0.0,0.0,6,0,0
S01_day2,S01,023_rest_23,rest,104,16400,16700,6,,,,,,,0,86.83333333333333,3.435921354681384,82.0,90.0,86.83333333333333,86.9012849924173,0.0,0.0,0.0,0.0,0.0,0.0,0.0,0.0,0.0,0.0,0.0,0.0,0.0,0.0,0.0,255.0,0.0,0.0,0.0,0.0,0.0,255.0,0.0,0.0,0.0,0.0,0.0,0.0,0.0,0.0,6,0,0
S01_day2,S01,023_rest_23,rest,105,16500,16800,2,,,,,,,0,82.0,0.0,82.0,82.0,82.0,82.0,0.0,0.0,0.0,0.0,0.0,0.0,0.0,0.0,0.0,0.0,0.0,0.0,0.0,0.0,0.0,255.0,0.0,0.0,0.0,0.0,0.0,255.0,0.0,0.0,0.0,0.0,0.0,0.0,0.0,0.0,2,0,0
S01_day2,S01,024_rest_24,rest,106,16600,16900,1,,,,,,,0,72.0,0.0,72.0,72.0,72.0,72.0,0.0,0.0,0.0,0.0,0.0,0.0,0.0,0.0,0.0,0.0,0.0,0.0,0.0,0.0,0.0,255.0,0.0,0.0,0.0,0.0,0.0,255.0,0.0,0.0,0.0,0.0,0.0,0.0,0.0,0.0,1,0,0
S01_day2,S01,024_rest_24,rest,107,16700,17000,6,,,,,,,0,60.166666666666664,5.4594464513864,56.0,72.0,60.166666666666664,60.413850509078905,0.0,0.0,0.0,0.0,0.0,0.0,0.0,0.0,0.0,0.0,0.0,0.0,0.0,0.0,0.0,255.0,0.0,0.0,0.0,0.0,0.0,255.0,0.0,0.0,0.0,0.0,0.0,0.0,0.0,0.0,6,0,0
S01_day2,S01,024_rest_24,rest,108,16800,17100,7,,,,,,,0,62.714285714285715,8.03055389860297,56.0,78.0,62.714285714285715,63.226350745329505,0.0,0.0,0.0,0.0,0.0,0.0,0.0,0.0,0.0,0.0,0.0,0.0,0.0,0.0,0.0,255.0,0.0,0.0,0.0,0.0,0.0,255.0,0.0,0.0,0.0,0.0,0.0,0.0,0.0,0.0,7,0,0
S01_day2,S01,024_rest_24,rest,109,16900,17200,6,,,,,,,0,61.166666666666664,7.646713164636308,56.0,78.0,61.166666666666664,61.64278816969049,0.0,0.0,0.0,0.0,0.0,0.0,0.0,0.0,0.0,0.0,0.0,0.0,0.0,0.0,0.0,255.0,0.0,0.0,0.0,0.0,0.0,255.0,0.0,0.0,0.0,0.0,0.0,0.0,0.0,0.0,6,0,0
S01_day2,S01,024_rest_24,rest,110,17000,17300,1,,,,,,,0,78.0,0.0,78.0,78.0,78.0,78.0,0.0,0.0,0.0,0.0,0.0,0.0,0.0,0.0,0.0,0.0,0.0,0.0,0.0,0.0,0.0,255.0,0.0,0.0,0.0,0.0,0.0,255.0,0.0,0.0,0.0,0.0,0.0,0.0,0.0,0.0,1,0,0
S01_day2,S01,025_rest_25,rest,111,17100,17400,4,,,,,,,0,53.0,5.196152422706632,50.0,62.0,53.0,53.25410782277739,0.0,0.0,0.0,0.0,0.0,0.0,0.0,0.0,0.0,0.0,0.0,0.0,0.0,0.0,0.0,255.0,0.0,0.0,0.0,0.0,0.0,255.0,0.0,0.0,0.0,0.0,0.0,0.0,0.0,0.0,4,0,0
S01_day2,S01,025_rest_25,rest,112,17200,17500,7,,,,,,,0,70.0,20.304819976688155,50.0,100.0,70.0,72.8854286828699,0.0,0.0,0.0,0.0,0.0,0.0,0.0,0.0,0.0,0.0,0.0,0.0,0.0,0.0,0.0,255.0,0.0,0.0,0.0,0.0,0.0,255.0,0.0,0.0,0.0,0.0,0.0,0.0,0.0,0.0,7,0,0
S01_day2,S01,025_rest_25,rest,113,17300,17600,7,,,,,,,0,70.0,20.304819976688155,50.0,100.0,70.0,72.8854286828699,0.0,0.0,0.0,0.0,0.0,0.0,0.0,0.0,0.0,0.0,0.0,0.0,0.0,0.0,0.0,255.0,0.0,0.0,0.0,0.0,0.0,255.0,0.0,0.0,0.0,0.0,0.0,0.0,0.0,0.0,7,0,0
S01_day2,S01,025_rest_25,rest,114,17400,17700,3,,,,,,,0,92.66666666666667,5.185449728701348,89.0,100.0,92.66666666666667,92.81163720137685,0.0,0.0,0.0,0.0,0.0,0.0,0.0,0.0,0.0,0.0,0.0,0.0,0.0,0.0,0.0,255.0,0.0,0.0,0.0,0.0,0.0,255.0,0.0,0.0,0.0,0.0,0.0,0.0,0.0,0.0,3,0,0
S01_day2,S01,026_rest_26,rest,115,17500,17800,4,,,,,,,0,99.0,6.928203230275509,95.0,111.0,99.0,99.24212815130478,0.0,0.0,0.0,0.0,0.0,0.0,0.0,0.0,0.0,0.0,0.0,0.0,0.0,0.0,0.0,255.0,0.0,0.0,0.0,0.0,0.0,255.0,0.0,0.0,0.0,0.0,0.0,0.0,0.0,0.0,4,0,0
S01_day2,S01,026_rest_26,rest,116,17600,17900,7,,,,,,,0,90.85714285714286,10.80249404309118,79.0,111.0,90.85714285714286,91.4970725527013,0.0,0.0,0.0,0.0,0.0,0.0,0.0,0.0,0.0,0.0,0.0,0.0,0.0,0.0,0.0,255.0,0.0,0.0,0.0,0.0,0.0,255.0,0.0,0.0,0.0,0.0,0.0,0.0,0.0,0.0,7,0,0
S01_day2,S01,026_rest_26,rest,117,17700,18000,7,,,,,,,0,90.85714285714286,10.80249404309118,79.0,111.0,90.85714285714286,91.4970725527013,0.0,0.0,0.0,0.0,0.0,0.0,0.0,0.0,0.0,0.0,0.0,0.0,0.0,0.0,0.0,255.0,0.0,0.0,0.0,0.0,0.0,255.0,0.0,0.0,0.0,0.0,0.0,0.0,0.0,0.0,7,0,0
S01_day2,S01,026_rest_26,rest,118,17800,18100,3,,,,,,,0,80.0,1.4142135623730951,79.0,82.0,80.0,80.01249902359005,0.0,0.0,0.0,0.0,0.0,0.0,0.0,0.0,0.0,0.0,0.0,0.0,0.0,0.0,0.0,255.0,0.0,0.0,0.0,0.0,0.0,255.0,0.0,0.0,0.0,0.0,0.0,0.0,0.0,0.0,3,0,0
S01_day2,S01,027_rest_27,rest,119,17900,18200,2,,,,,,,0,74.0,0.0,74.0,74.0,74.0,74.0,0.0,0.0,0.0,0.0,0.0,0.0,0.0,0.0,0.0,0.0,0.0,0.0,0.0,0.0,0.0,255.0,0.0,0.0,0.0,0.0,0.0,255.0,0.0,0.0,0.0,0.0,0.0,0.0,0.0,0.0,2,0,0
S01_day2,S01,027_rest_27,rest,120,18000,18300,7,,,,,,,0,75.57142857142857,1.5907898179514348,74.0,78.0,75.57142857142857,75.58816989828122,0.0,0.0,0.0,0.0,0.0,0.0,0.0,0.0,0.0,0.0,0.0,0.0,0.0,0.0,0.0,255.0,0.0,0.0,0.0,0.0,0.0,255.0,0.0,0.0,0.0,0.0,0.0,0.0,0.0,0.0,7,0,0
S01_day2,S01,027_rest_27,rest,121,18100,18400,8,,,,,,,0,76.125,2.0879116360612584,74.0,80.0,76.125,76.15362762206408,0.0,0.0,0.0,0.0,0.0,0.0,0.0,0.0,0.0,0.0,0.0,0.0,0.0,0.0,0.0,255.0,0.0,0.0,0.0,0.0,0.0,255.0,0.0,0.0,0.0,0.0,0.0,0.0,0.0,0.0,8,0,0
S01_day2,S01,027_rest_27,rest,122,18200,18500,6,,,,,,,0,76.83333333333333,1.9507833184532708,75.0,80.0,76.83333333333333,76.85809434709311,0.0,0.0,0.0,0.0,0.0,0.0,0.0,0.0,0.0,0.0,0.0,0.0,0.0,0.0,0.0,255.0,0.0,0.0,0.0,0.0,0.0,255.0,0.0,0.0,0.0,0.0,0.0,0.0,0.0,0.0,6,0,0
S01_day2,S01,027_rest_27,rest,123,18300,18600,1,,,,,,,0,80.0,0.0,80.0,80.0,80.0,80.0,0.0,0.0,0.0,0.0,0.0,0.0,0.0,0.0,0.0,0.0,0.0,0.0,0.0,0.0,0.0,255.0,0.0,0.0,0.0,0.0,0.0,255.0,0.0,0.0,0.0,0.0,0.0,0.0,0.0,0.0,1,0,0
S01_day2,S01,028_rest_28,rest,124,18400,18700,5,,,,,,,0,71.8,6.368673331236264,64.0,77.0,71.8,72.08189786624656,0.0,0.0,0.0,0.0,0.0,0.0,0.0,0.0,0.0,0.0,0.0,0.0,0.0,0.0,0.0,255.0,0.0,0.0,0.0,0.0,0.0,255.0,0.0,0.0,0.0,0.0,0.0,0.0,0.0,0.0,5,0,0
S01_day2,S01,028_rest_28,rest,125,18500,18800,7,,,,,,,0,72.42857142857143,5.473498303048005,64.0,77.0,72.42857142857143,72.63509580675958,0.0,0.0,0.0,0.0,0.0,0.0,0.0,0.0,0.0,0.0,0.0,0.0,0.0,0.0,0.0,255.0,0.0,0.0,0.0,0.0,0.0,255.0,0.0,0.0,0.0,0.0,0.0,0.0,0.0,0.0,7,0,0
S01_day2,S01,028_rest_28,rest,126,18600,18900,7,,,,,,,0,72.42857142857143,5.473498303048005,64.0,77.0,72.42857142857143,72.63509580675958,0.0,0.0,0.0,0.0,0.0,0.0,0.0,0.0,0.0,0.0,0.0,0.0,0.0,0.0,0.0,255.0,0.0,0.0,0.0,0.0,0.0,255.0,0.0,0.0,0.0,0.0,0.0,0.0,0.0,0.0,7,0,0
S01_day2,S01,028_rest_28,rest,127,18700,19000,2,,,,,,,0,74.0,0.0,74.0,74.0,74.0,74.0,0.0,0.0,0.0,0.0,0.0,0.0,0.0,0.0,0.0,0.0,0.0,0.0,0.0,0.0,0.0,255.0,0.0,0.0,0.0,0.0,0.0,255.0,0.0,0.0,0.0,0.0,0.0,0.0,0.0,0.0,2,0,0
S01_day2,S01,029_rest_29,rest,128,18900,19200,5,,,,,,,0,77.4,4.409081537009721,72.0,81.0,77.4,77.5254796824889,0.0,0.0,0.0,0.0,0.0,0.0,0.0,0.0,0.0,0.0,0.0,0.0,0.0,0.0,0.0,255.0,0.0,0.0,0.0,0.0,0.0,255.0,0.0,0.0,0.0,0.0,0.0,0.0,0.0,0.0,5,0,0
S01_day2,S01,029_rest_29,rest,129,19000,19300,7,,,,,,,0,74.71428571428571,5.649634266652911,68.0,81.0,74.71428571428571,74.92758408718953,0.0,0.0,0.0,0.0,0.0,0.0,0.0,0.0,0.0,0.0,0.0,0.0,0.0,0.0,0.0,255.0,0.0,0.0,0.0,0.0,0.0,255.0,0.0,0.0,0.0,0.0,0.0,0.0,0.0,0.0,7,0,0
S01_day2,S01,029_rest_29,rest,130,19100,19400,7,,,,,,,0,74.71428571428571,5.649634266652911,68.0,81.0,74.71428571428571,74.92758408718953,0.0,0.0,0.0,0.0,0.0,0.0,0.0,0.0,0.0,0.0,0.0,0.0,0.0,0.0,0.0,255.0,0.0,0.0,0.0,0.0,0.0,255.0,0.0,0.0,0.0,0.0,0.0,0.0,0.0,0.0,7,0,0
S01_day2,S01,029_rest_29,rest,131,19200,19500,2,,,,,,,0,68.0,0.0,68.0,68.0,68.0,68.0,0.0,0.0,0.0,0.0,0.0,0.0,0.0,0.0,0.0,0.0,0.0,0.0,0.0,0.0,0.0,255.0,0.0,0.0,0.0,0.0,0.0,255.0,0.0,0.0,0.0,0.0,0.0,0.0,0.0,0.0,2,0,0
S01_day2,S01,030_rest_30,rest,132,19300,19600,4,,,,,,,0,59.25,7.361215932167728,55.0,72.0,59.25,59.705527382311935,0.0,0.0,0.0,0.0,0.0,0.0,0.0,0.0,0.0,0.0,0.0,0.0,0.0,0.0,0.0,255.0,0.0,0.0,0.0,0.0,0.0,255.0,0.0,0.0,0.0,0.0,0.0,0.0,0.0,0.0,4,0,0
S01_day2,S01,030_rest_30,rest,133,19400,19700,8,,,,,,,0,66.625,9.054522350737226,55.0,75.0,66.625,67.23745236101678,0.0,0.0,0.0,0.0,0.0,0.0,0.0,0.0,0.0,0.0,0.0,0.0,0.0,0.0,0.0,255.0,0.0,0.0,0.0,0.0,0.0,255.0,0.0,0.0,0.0,0.0,0.0,0.0,0.0,0.0,8,0,0
S01_day2,S01,030_rest_30,rest,134,19500,19800,8,,,,,,,0,66.625,9.054522350737226,55.0,75.0,66.625,67.23745236101678,0.0,0.0,0.0,0.0,0.0,0.0,0.0,0.0,0.0,0.0,0.0,0.0,0.0,0.0,0.0,255.0,0.0,0.0,0.0,0.0,0.0,255.0,0.0,0.0,0.0,0.0,0.0,0.0,0.0,0.0,8,0,0
S01_day2,S01,030_rest_30,rest,135,19600,19900,4,,,,,,,0,74.0,1.0,73.0,75.0,74.0,74.00675644831355,0.0,0.0,0.0,0.0,0.0,0.0,0.0,0.0,0.0,0.0,0.0,0.0,0.0,0.0,0.0,255.0,0.0,0.0,0.0,0.0,0.0,255.0,0.0,0.0,0.0,0.0,0.0,0.0,0.0,0.0,4,0,0
S01_day2,S01,031_rest_31,rest,136,19800,20100,3,,,,,,,0,86.33333333333333,2.357022603955158,83.0,88.0,86.33333333333333,86.36550237218562,0.0,0.0,0.0,0.0,0.0,0.0,0.0,0.0,0.0,0.0,0.0,0.0,0.0,0.0,0.0,255.0,0.0,0.0,0.0,0.0,0.0,255.0,0.0,0.0,0.0,0.0,0.0,0.0,0.0,0.0,3,0,0
S01_day2,S01,031_rest_31,rest,137,19900,20200,7,,,,,,,0,80.14285714285714,7.953949089757174,68.0,88.0,80.14285714285714,80.53659327996719,0.0,0.0,0.0,0.0,0.0,0.0,0.0,0.0,0.0,0.0,0.0,0.0,0.0,0.0,0.0,255.0,0.0,0.0,0.0,0.0,0.0,255.0,0.0,0.0,0.0,0.0,0.0,0.0,0.0,0.0,7,0,0
S01_day2,S01,031_rest_31,rest,138,20000,20300,7,,,,,,,0,80.14285714285714,7.953949089757174,68.0,88.0,80.14285714285714,80.53659327996719,0.0,0.0,0.0,0.0,0.0,0.0,0.0,0.0,0.0,0.0,0.0,0.0,0.0,0.0,0.0,255.0,0.0,0.0,0.0,0.0,0.0,255.0,0.0,0.0,0.0,0.0,0.0,0.0,0.0,0.0,7,0,0
S01_day2,S01,031_rest_31,rest,139,20100,20400,4,,,,,,,0,75.5,7.5,68.0,83.0,75.5,75.871602065595,0.0,0.0,0.0,0.0,0.0,0.0,0.0,0.0,0.0,0.0,0.0,0.0,0.0,0.0,0.0,255.0,0.0,0.0,0.0,0.0,0.0,255.0,0.0,0.0,0.0,0.0,0.0,0.0,0.0,0.0,4,0,0
S01_day2,S01,032_rest_32,rest,140,20200,20500,1,,,,,,,0,80.0,0.0,80.0,80.0,80.0,80.0,0.0,0.0,0.0,0.0,0.0,0.0,0.0,0.0,0.0,0.0,0.0,0.0,0.0,0.0,0.0,255.0,0.0,0.0,0.0,0.0,0.0,255.0,0.0,0.0,0.0,0.0,0.0,0.0,0.0,0.0,1,0,0
S01_day2,S01,032_rest_32,rest,141,20300,20600,6,,,,,,,0,86.33333333333333,10.466878978738388,76.0,101.0,86.33333333333333,86.96551040498757,0.0,0.0,0.0,0.0,0.0,0.0,0.0,0.0,0.0,0.0,0.0,0.0,0.0,0.0,0.0,255.0,0.0,0.0,0.0,0.0,0.0,255.0,0.0,0.0,0.0,0.0,0.0,0.0,0.0,0.0,6,0,0
S01_day2,S01,032_rest_32,rest,142,20400,20700,10,,,,,,,0,88.0,12.409673645990857,76.0,105.0,88.0,88.87069258197553,0.0,0.0,0.0,0.0,0.0,0.0,0.0,0.0,0.0,0.0,0.0,0.0,0.0,0.0,0.0,255.0,0.0,0.0,0.0,0.0,0.0,255.0,0.0,0.0,0.0,0.0,0.0,0.0,0.0,0.0,10,0,0
S01_day2,S01,032_rest_32,rest,143,20500,20800,9,,,,,,,0,88.88888888888889,12.775362090493164,76.0,105.0,88.88888888888889,89.8022518896071,0.0,0.0,0.0,0.0,0.0,0.0,0.0,0.0,0.0,0.0,0.0,0.0,0.0,0.0,0.0,255.0,0.0,0.0,0.0,0.0,0.0,255.0,0.0,0.0,0.0,0.0,0.0,0.0,0.0,0.0,9,0,0
S01_day2,S01,032_rest_32,rest,144,20600,20900,4,,,,,,,0,90.5,14.5,76.0,105.0,90.5,91.65424158215484,0.0,0.0,0.0,0.0,0.0,0.0,0.0,0.0,0.0,0.0,0.0,0.0,0.0,0.0,0.0,255.0,0.0,0.0,0.0,0.0,0.0,255.0,0.0,0.0,0.0,0.0,0.0,0.0,0.0,0.0,4,0,0
S01_day2,S01,033_rest_33,rest,145,21300,21600,4,,,,,,,0,72.0,2.345207879911715,68.0,74.0,72.0,72.03818431915118,0.0,0.0,0.0,0.0,0.0,0.0,0.0,0.0,0.0,0.0,0.0,0.0,0.0,0.0,0.0,255.0,0.0,0.0,0.0,0.0,0.0,255.0,0.0,0.0,0.0,0.0,0.0,0.0,0.0,0.0,4,0,0
S01_day2,S01,033_rest_33,rest,146,21400,21700,7,,,,,,,0,75.0,6.047431568147635,68.0,89.0,75.0,75.24341451962044,0.0,0.0,0.0,0.0,0.0,0.0,0.0,0.0,0.0,0.0,0.0,0.0,0.0,0.0,0.0,255.0,0.0,0.0,0.0,0.0,0.0,255.0,0.0,0.0,0.0,0.0,0.0,0.0,0.0,0.0,7,0,0
S01_day2,S01,033_rest_33,rest,147,21500,21800,7,,,,,,,0,75.0,6.047431568147635,68.0,89.0,75.0,75.24341451962044,0.0,0.0,0.0,0.0,0.0,0.0,0.0,0.0,0.0,0.0,0.0,0.0,0.0,0.0,0.0,255.0,0.0,0.0,0.0,0.0,0.0,255.0,0.0,0.0,0.0,0.0,0.0,0.0,0.0,0.0,7,0,0
S01_day2,S01,033_rest_33,rest,148,21600,21900,3,,,,,,,0,79.0,7.0710678118654755,74.0,89.0,79.0,79.31582439841371,0.0,0.0,0.0,0.0,0.0,0.0,0.0,0.0,0.0,0.0,0.0,0.0,0.0,0.0,0.0,255.0,0.0,0.0,0.0,0.0,0.0,255.0,0.0,0.0,0.0,0.0,0.0,0.0,0.0,0.0,3,0,0
S01_day2,S01,034_rest_34,rest,149,21800,22100,1,,,,,,,0,69.0,0.0,69.0,69.0,69.0,69.0,0.0,0.0,0.0,0.0,0.0,0.0,0.0,0.0,0.0,0.0,0.0,0.0,0.0,0.0,0.0,255.0,0.0,0.0,0.0,0.0,0.0,255.0,0.0,0.0,0.0,0.0,0.0,0.0,0.0,0.0,1,0,0
S01_day2,S01,034_rest_34,rest,150,21900,22200,6,,,,,,,0,66.83333333333333,6.693695209341067,52.0,71.0,66.83333333333333,67.1677005710334,0.0,0.0,0.0,0.0,0.0,0.0,0.0,0.0,0.0,0.0,0.0,0.0,0.0,0.0,0.0,255.0,0.0,0.0,0.0,0.0,0.0,255.0,0.0,0.0,0.0,0.0,0.0,0.0,0.0,0.0,6,0,0
S01_day2,S01,034_rest_34,rest,151,22000,22300,7,,,,,,,0,64.71428571428571,8.08374534331149,52.0,71.0,64.71428571428571,65.21721946147133,0.0,0.0,0.0,0.0,0.0,0.0,0.0,0.0,0.0,0.0,0.0,0.0,0.0,0.0,0.0,255.0,0.0,0.0,0.0,0.0,0.0,255.0,0.0,0.0,0.0,0.0,0.0,0.0,0.0,0.0,7,0,0
S01_day2,S01,034_rest_34,rest,152,22100,22400,6,,,,,,,0,64.0,8.524474568362947,52.0,71.0,64.0,64.56521251158914,0.0,0.0,0.0,0.0,0.0,0.0,0.0,0.0,0.0,0.0,0.0,0.0,0.0,0.0,0.0,255.0,0.0,0.0,0.0,0.0,0.0,255.0,0.0,0.0,0.0,0.0,0.0,0.0,0.0,0.0,6,0,0
S01_day2,S01,034_rest_34,rest,153,22200,22500,1,,,,,,,0,52.0,0.0,52.0,52.0,52.0,52.0,0.0,0.0,0.0,0.0,0.0,0.0,0.0,0.0,0.0,0.0,0.0,0.0,0.0,0.0,0.0,255.0,0.0,0.0,0.0,0.0,0.0,255.0,0.0,0.0,0.0,0.0,0.0,0.0,0.0,0.0,1,0,0
S01_day2,S01,035_rest_35,rest,154,22300,22600,1,,,,,,,0,90.0,0.0,90.0,90.0,90.0,90.0,0.0,0.0,0.0,0.0,0.0,0.0,0.0,0.0,0.0,0.0,0.0,0.0,0.0,0.0,0.0,255.0,0.0,0.0,0.0,0.0,0.0,255.0,0.0,0.0,0.0,0.0,0.0,0.0,0.0,0.0,1,0,0
S01_day2,S01,035_rest_35,rest,155,22400,22700,6,,,,,,,0,90.83333333333333,3.435921354681384,85.0,95.0,90.83333333333333,90.89829481348922,0.0,0.0,0.0,0.0,0.0,0.0,0.0,0.0,0.0,0.0,0.0,0.0,0.0,0.0,0.0,255.0,0.0,0.0,0.0,0.0,0.0,255.0,0.0,0.0,0.0,0.0,0.0,0.0,0.0,0.0,6,0,0
S01_day2,S01,035_rest_35,rest,156,22500,22800,7,,,,,,,0,90.0,3.779644730092272,85.0,95.0,90.0,90.07933011676826,0.0,0.0,0.0,0.0,0.0,0.0,0.0,0.0,0.0,0.0,0.0,0.0,0.0,0.0,0.0,255.0,0.0,0.0,0.0,0.0,0.0,255.0,0.0,0.0,0.0,0.0,0.0,0.0,0.0,0.0,7,0,0
S01_day2,S01,035_rest_35,rest,157,22600,22900,6,,,,,,,0,90.0,4.08248290463863,85.0,95.0,90.0,90.0925450115972,0.0,0.0,0.0,0.0,0.0,0.0,0.0,0.0,0.0,0.0,0.0,0.0,0.0,0.0,0.0,255.0,0.0,0.0,0.0,0.0,0.0,255.0,0.0,0.0,0.0,0.0,0.0,0.0,0.0,0.0,6,0,0
S01_day2,S01,035_rest_35,rest,158,22700,23000,1,,,,,,,0,85.0,0.0,85.0,85.0,85.0,85.0,0.0,0.0,0.0,0.0,0.0,0.0,0.0,0.0,0.0,0.0,0.0,0.0,0.0,0.0,0.0,255.0,0.0,0.0,0.0,0.0,0.0,255.0,0.0,0.0,0.0,0.0,0.0,0.0,0.0,0.0,1,0,0
S01_day2,S01,036_rest_36,rest,159,22800,23100,1,,,,,,,0,73.0,0.0,73.0,73.0,73.0,73.0,0.0,0.0,0.0,0.0,0.0,0.0,0.0,0.0,0.0,0.0,0.0,0.0,0.0,0.0,0.0,255.0,0.0,0.0,0.0,0.0,0.0,255.0,0.0,0.0,0.0,0.0,0.0,0.0,0.0,0.0,1,0,0
S01_day2,S01,036_rest_36,rest,160,22900,23200,6,,,,,,,0,74.0,4.123105625617661,67.0,79.0,74.0,74.11477585475112,0.0,0.0,0.0,0.0,0.0,0.0,0.0,0.0,0.0,0.0,0.0,0.0,0.0,0.0,0.0,255.0,0.0,0.0,0.0,0.0,0.0,255.0,0.0,0.0,0.0,0.0,0.0,0.0,0.0,0.0,6,0,0
S01_day2,S01,036_rest_36,rest,161,23000,23300,8,,,,,,,0,72.25,4.683748498798798,67.0,79.0,72.25,72.40165743959182,0.0,0.0,0.0,0.0,0.0,0.0,0.0,0.0,0.0,0.0,0.0,0.0,0.0,0.0,0.0,255.0,0.0,0.0,0.0,0.0,0.0,255.0,0.0,0.0,0.0,0.0,0.0,0.0,0.0,0.0,8,0,0
S01_day2,S01,036_rest_36,rest,162,23100,23400,7,,,,,,,0,72.14285714285714,4.997958767010258,67.0,79.0,72.14285714285714,72.31577579319348,0.0,0.0,0.0,0.0,0.0,0.0,0.0,0.0,0.0,0.0,0.0,0.0,0.0,0.0,0.0,255.0,0.0,0.0,0.0,0.0,0.0,255.0,0.0,0.0,0.0,0.0,0.0,0.0,0.0,0.0,7,0,0
S01_day2,S01,036_rest_36,rest,163,23200,23500,2,,,,,,,0,67.0,0.0,67.0,67.0,67.0,67.0,0.0,0.0,0.0,0.0,0.0,0.0,0.0,0.0,0.0,0.0,0.0,0.0,0.0,0.0,0.0,255.0,0.0,0.0,0.0,0.0,0.0,255.0,0.0,0.0,0.0,0.0,0.0,0.0,0.0,0.0,2,0,0
S01_day2,S01,037_rest_37,rest,164,23400,23700,3,,,,,,,0,65.33333333333333,4.714045207910316,62.0,72.0,65.33333333333333,65.50318058435535,0.0,0.0,0.0,0.0,0.0,0.0,0.0,0.0,0.0,0.0,0.0,0.0,0.0,0.0,0.0,255.0,0.0,0.0,0.0,0.0,0.0,255.0,0.0,0.0,0.0,0.0,0.0,0.0,0.0,0.0,3,0,0
S01_day2,S01,037_rest_37,rest,165,23500,23800,8,,,,,,,0,70.25,4.841229182759271,62.0,74.0,70.25,70.4166173569847,0.0,0.0,0.0,0.0,0.0,0.0,0.0,0.0,0.0,0.0,0.0,0.0,0.0,0.0,0.0,255.0,0.0,0.0,0.0,0.0,0.0,255.0,0.0,0.0,0.0,0.0,0.0,0.0,0.0,0.0,8,0,0
S01_day2,S01,037_rest_37,rest,166,23600,23900,13,,,,,,,0,74.53846153846153,6.868158241707605,62.0,85.0,74.53846153846153,74.85421729036946,0.0,0.0,0.0,0.0,0.0,0.0,0.0,0.0,0.0,0.0,0.0,0.0,0.0,0.0,0.0,255.0,0.0,0.0,0.0,0.0,0.0,255.0,0.0,0.0,0.0,0.0,0.0,0.0,0.0,0.0,13,0,0
S01_day2,S01,037_rest_37,rest,167,23700,24000,15,,,,,,,0,80.26666666666667,5.720916787446649,72.0,88.0,80.26666666666667,80.47028437048465,0.0,0.0,0.0,0.0,0.0,0.0,0.0,0.0,0.0,0.0,0.0,0.0,0.0,0.0,0.0,255.0,0.0,0.0,0.0,0.0,0.0,255.0,0.0,0.0,0.0,0.0,0.0,0.0,0.0,0.0,15,0,0
S01_day2,S01,037_rest_37,rest,168,23800,24100,15,,,,,,,0,82.86666666666666,3.343982987729188,78.0,88.0,82.86666666666666,82.9341103929298,0.0,0.0,0.0,0.0,0.0,0.0,0.0,0.0,0.0,0.0,0.0,0.0,0.0,0.0,0.0,255.0,0.0,0.0,0.0,0.0,0.0,255.0,0.0,0.0,0.0,0.0,0.0,0.0,0.0,0.0,15,0,0
S01_day2,S01,037_rest_37,rest,169,23900,24200,15,,,,,,,0,86.66666666666667,5.473166867139678,78.0,97.0,86.66666666666667,86.83931521302242,0.0,0.0,0.0,0.0,0.0,0.0,0.0,0.0,0.0,0.0,0.0,0.0,0.0,0.0,0.0,255.0,0.0,0.0,0.0,0.0,0.0,255.0,0.0,0.0,0.0,0.0,0.0,0.0,0.0,0.0,15,0,0
S01_day2,S01,037_rest_37,rest,170,24000,24300,15,,,,,,,0,84.2,6.665333199973326,77.0,97.0,84.2,84.46340430427054,0.0,0.0,0.0,0.0,0.0,0.0,0.0,0.0,0.0,0.0,0.0,0.0,0.0,0.0,0.0,255.0,0.0,0.0,0.0,0.0,0.0,255.0,0.0,0.0,0.0,0.0,0.0,0.0,0.0,0.0,15,0,0
S01_day2,S01,037_rest_37,rest,171,24100,24400,15,,,,,,,0,83.53333333333333,9.878371435728777,64.0,97.0,83.53333333333333,84.11539692588985,0.0,0.0,0.0,0.0,0.0,0.0,0.0,0.0,0.0,0.0,0.0,0.0,0.0,0.0,0.0,255.0,0.0,0.0,0.0,0.0,0.0,255.0,0.0,0.0,0.0,0.0,0.0,0.0,0.0,0.0,15,0,0
S01_day2,S01,037_rest_37,rest,172,24200,24500,14,,,,,,,0,77.5,7.988831489737944,64.0,89.0,77.5,77.91066312496274,0.0,0.0,0.0,0.0,0.0,0.0,0.0,0.0,0.0,0.0,0.0,0.0,0.0,0.0,0.0,255.0,0.0,0.0,0.0,0.0,0.0,255.0,0.0,0.0,0.0,0.0,0.0,0.0,0.0,0.0,14,0,0
S01_day2,S01,037_rest_37,rest,173,24300,24600,9,,,,,,,0,76.77777777777777,9.82940913537621,64.0,89.0,76.77777777777777,77.40442134945809,0.0,0.0,0.0,0.0,0.0,0.0,0.0,0.0,0.0,0.0,0.0,0.0,0.0,0.0,0.0,255.0,0.0,0.0,0.0,0.0,0.0,255.0,0.0,0.0,0.0,0.0,0.0,0.0,0.0,0.0,9,0,0
S01_day2,S01,037_rest_37,rest,174,24400,24700,4,,,,,,,0,74.0,4.0,70.0,78.0,74.0,74.10802925459562,0.0,0.0,0.0,0.0,0.0,0.0,0.0,0.0,0.0,0.0,0.0,0.0,0.0,0.0,0.0,255.0,0.0,0.0,0.0,0.0,0.0,255.0,0.0,0.0,0.0,0.0,0.0,0.0,0.0,0.0,4,0,0
S01_day2,S01,038_rest_38,rest,175,25300,25600,3,,,,,,,0,74.0,0.0,74.0,74.0,74.0,74.0,0.0,0.0,0.0,0.0,0.0,0.0,0.0,0.0,0.0,0.0,0.0,0.0,0.0,0.0,0.0,255.0,0.0,0.0,0.0,0.0,0.0,255.0,0.0,0.0,0.0,0.0,0.0,0.0,0.0,0.0,3,0,0
S01_day2,S01,038_rest_38,rest,176,25400,25700,7,,,,,,,0,78.57142857142857,5.473498303048005,74.0,87.0,78.57142857142857,78.761847181415,0.0,0.0,0.0,0.0,0.0,0.0,0.0,0.0,0.0,0.0,0.0,0.0,0.0,0.0,0.0,255.0,0.0,0.0,0.0,0.0,0.0,255.0,0.0,0.0,0.0,0.0,0.0,0.0,0.0,0.0,7,0,0
S01_day2,S01,038_rest_38,rest,177,25500,25800,7,,,,,,,0,78.57142857142857,5.473498303048005,74.0,87.0,78.57142857142857,78.761847181415,0.0,0.0,0.0,0.0,0.0,0.0,0.0,0.0,0.0,0.0,0.0,0.0,0.0,0.0,0.0,255.0,0.0,0.0,0.0,0.0,0.0,255.0,0.0,0.0,0.0,0.0,0.0,0.0,0.0,0.0,7,0,0
S01_day2,S01,038_rest_38,rest,178,25600,25900,4,,,,,,,0,82.0,5.0,77.0,87.0,82.0,82.15229759416349,0.0,0.0,0.0,0.0,0.0,0.0,0.0,0.0,0.0,0.0,0.0,0.0,0.0,0.0,0.0,255.0,0.0,0.0,0.0,0.0,0.0,255.0,0.0,0.0,0.0,0.0,0.0,0.0,0.0,0.0,4,0,0
S01_day2,S01,039_rest_39,rest,179,25900,26200,5,,,,,,,0,85.4,5.388877434122992,81.0,92.0,85.4,85.56985450495986,0.0,0.0,0.0,0.0,0.0,0.0,0.0,0.0,0.0,0.0,0.0,0.0,0.0,0.0,0.0,255.0,0.0,0.0,0.0,0.0,0.0,255.0,0.0,0.0,0.0,0.0,0.0,0.0,0.0,0.0,5,0,0
S01_day2,S01,039_rest_39,rest,180,26000,26300,7,,,,,,,0,86.71428571428571,5.006118705124352,81.0,92.0,86.71428571428571,86.85867009935491,0.0,0.0,0.0,0.0,0.0,0.0,0.0,0.0,0.0,0.0,0.0,0.0,0.0,0.0,0.0,255.0,0.0,0.0,0.0,0.0,0.0,255.0,0.0,0.0,0.0,0.0,0.0,0.0,0.0,0.0,7,0,0
S01_day2,S01,039_rest_39,rest,181,26100,26400,7,,,,,,,0,86.71428571428571,5.006118705124352,81.0,92.0,86.71428571428571,86.85867009935491,0.0,0.0,0.0,0.0,0.0,0.0,0.0,0.0,0.0,0.0,0.0,0.0,0.0,0.0,0.0,255.0,0.0,0.0,0.0,0.0,0.0,255.0,0.0,0.0,0.0,0.0,0.0,0.0,0.0,0.0,7,0,0
S01_day2,S01,039_rest_39,rest,182,26200,26500,2,,,,,,,0,90.0,0.0,90.0,90.0,90.0,90.0,0.0,0.0,0.0,0.0,0.0,0.0,0.0,0.0,0.0,0.0,0.0,0.0,0.0,0.0,0.0,255.0,0.0,0.0,0.0,0.0,0.0,255.0,0.0,0.0,0.0,0.0,0.0,0.0,0.0,0.0,2,0,0
S01_day2,S01,040_rest_40,rest,183,26300,26600,2,,,,,,,0,78.0,0.0,78.0,78.0,78.0,78.0,0.0,0.0,0.0,0.0,0.0,0.0,0.0,0.0,0.0,0.0,0.0,0.0,0.0,0.0,0.0,255.0,0.0,0.0,0.0,0.0,0.0,255.0,0.0,0.0,0.0,0.0,0.0,0.0,0.0,0.0,2,0,0
S01_day2,S01,040_rest_40,rest,184,26400,26700,7,,,,,,,0,87.14285714285714,7.623808036643619,78.0,98.0,87.14285714285714,87.47571091451616,0.0,0.0,0.0,0.0,0.0,0.0,0.0,0.0,0.0,0.0,0.0,0.0,0.0,0.0,0.0,255.0,0.0,0.0,0.0,0.0,0.0,255.0,0.0,0.0,0.0,0.0,0.0,0.0,0.0,0.0,7,0,0
S01_day2,S01,040_rest_40,rest,185,26500,26800,7,,,,,,,0,87.14285714285714,7.623808036643619,78.0,98.0,87.14285714285714,87.47571091451616,0.0,0.0,0.0,0.0,0.0,0.0,0.0,0.0,0.0,0.0,0.0,0.0,0.0,0.0,0.0,255.0,0.0,0.0,0.0,0.0,0.0,255.0,0.0,0.0,0.0,0.0,0.0,0.0,0.0,0.0,7,0,0
S01_day2,S01,040_rest_40,rest,186,26600,26900,5,,,,,,,0,90.8,5.878775382679628,86.0,98.0,90.8,90.99010935261042,0.0,0.0,0.0,0.0,0.0,0.0,0.0,0.0,0.0,0.0,0.0,0.0,0.0,0.0,0.0,255.0,0.0,0.0,0.0,0.0,0.0,255.0,0.0,0.0,0.0,0.0,0.0,0.0,0.0,0.0,5,0,0
S01_day2,S01,041_rest_41,rest,187,26900,27200,5,,,,,,,0,82.2,8.328265125462805,72.0,89.0,82.2,82.62082062047072,0.0,0.0,0.0,0.0,0.0,0.0,0.0,0.0,0.0,0.0,0.0,0.0,0.0,0.0,0.0,255.0,0.0,0.0,0.0,0.0,0.0,255.0,0.0,0.0,0.0,0.0,0.0,0.0,0.0,0.0,5,0,0
S01_day2,S01,041_rest_41,rest,188,27000,27300,10,,,,,,,0,88.7,18.493512375965793,67.0,114.0,88.7,90.60739484170153,0.0,0.0,0.0,0.0,0.0,0.0,0.0,0.0,0.0,0.0,0.0,0.0,0.0,0.0,0.0,255.0,0.0,0.0,0.0,0.0,0.0,255.0,0.0,0.0,0.0,0.0,0.0,0.0,0.0,0.0,10,0,0
S01_day2,S01,041_rest_41,rest,189,27100,27400,15,,,,,,,0,92.26666666666667,15.922590520668704,67.0,114.0,92.26666666666667,93.63047936792093,0.0,0.0,0.0,0.0,0.0,0.0,0.0,0.0,0.0,0.0,0.0,0.0,0.0,0.0,0.0,255.0,0.0,0.0,0.0,0.0,0.0,255.0,0.0,0.0,0.0,0.0,0.0,0.0,0.0,0.0,15,0,0
S01_day2,S01,041_rest_41,rest,190,27200,27500,15,,,,,,,0,100.2,14.647866738880444,67.0,114.0,100.2,101.26499888905347,0.0,0.0,0.0,0.0,0.0,0.0,0.0,0.0,0.0,0.0,0.0,0.0,0.0,0.0,0.0,255.0,0.0,0.0,0.0,0.0,0.0,255.0,0.0,0.0,0.0,0.0,0.0,0.0,0.0,0.0,15,0,0
S01_day2,S01,041_rest_41,rest,191,27300,27600,15,,,,,,,0,107.26666666666667,9.794329425177043,97.0,124.0,107.26666666666667,107.7128899745368,0.0,0.0,0.0,0.0,0.0,0.0,0.0,0.0,0.0,0.0,0.0,0.0,0.0,0.0,0.0,255.0,0.0,0.0,0.0,0.0,0.0,255.0,0.0,0.0,0.0,0.0,0.0,0.0,0.0,0.0,15,0,0
S01_day2,S01,041_rest_41,rest,192,27400,27700,14,,,,,,,0,111.71428571428571,8.794710840926506,97.0,124.0,111.71428571428571,112.059932944066,0.0,0.0,0.0,0.0,0.0,0.0,0.0,0.0,0.0,0.0,0.0,0.0,0.0,0.0,0.0,255.0,0.0,0.0,0.0,0.0,0.0,255.0,0.0,0.0,0.0,0.0,0.0,0.0,0.0,0.0,14,0,0
S01_day2,S01,041_rest_41,rest,193,27500,27800,9,,,,,,,0,114.88888888888889,7.880276989554286,105.0,124.0,114.88888888888889,115.15882751902068,0.0,0.0,0.0,0.0,0.0,0.0,0.0,0.0,0.0,0.0,0.0,0.0,0.0,0.0,0.0,255.0,0.0,0.0,0.0,0.0,0.0,255.0,0.0,0.0,0.0,0.0,0.0,0.0,0.0,0.0,9,0,0
S01_day2,S01,041_rest_41,rest,194,27600,27900,4,,,,,,,0,113.0,5.0,108.0,118.0,113.0,113.11056537742175,0.0,0.0,0.0,0.0,0.0,0.0,0.0,0.0,0.0,0.0,0.0,0.0,0.0,0.0,0.0,255.0,0.0,0.0,0.0,0.0,0.0,255.0,0.0,0.0,0.0,0.0,0.0,0.0,0.0,0.0,4,0,0
S01_day2,S01,042_rest_42,rest,195,28900,29200,2,,,,,,,0,109.0,0.0,109.0,109.0,109.0,109.0,0.0,0.0,0.0,0.0,0.0,0.0,0.0,0.0,0.0,0.0,0.0,0.0,0.0,0.0,0.0,255.0,0.0,0.0,0.0,0.0,0.0,255.0,0.0,0.0,0.0,0.0,0.0,0.0,0.0,0.0,2,0,0
S01_day2,S01,042_rest_42,rest,196,29000,29300,7,,,,,,,0,95.42857142857143,9.529760045804524,84.0,109.0,95.42857142857143,95.90322503142723,0.0,0.0,0.0,0.0,0.0,0.0,0.0,0.0,0.0,0.0,0.0,0.0,0.0,0.0,0.0,255.0,0.0,0.0,0.0,0.0,0.0,255.0,0.0,0.0,0.0,0.0,0.0,0.0,0.0,0.0,7,0,0
S01_day2,S01,042_rest_42,rest,197,29100,29400,8,,,,,,,0,96.375,9.259285879591364,84.0,109.0,96.375,96.8187740058714,0.0,0.0,0.0,0.0,0.0,0.0,0.0,0.0,0.0,0.0,0.0,0.0,0.0,0.0,0.0,255.0,0.0,0.0,0.0,0.0,0.0,255.0,0.0,0.0,0.0,0.0,0.0,0.0,0.0,0.0,8,0,0
S01_day2,S01,042_rest_42,rest,198,29200,29500,6,,,,,,,0,92.16666666666667,6.593346814950828,84.0,103.0,92.16666666666667,92.40220055099698,0.0,0.0,0.0,0.0,0.0,0.0,0.0,0.0,0.0,0.0,0.0,0.0,0.0,0.0,0.0,255.0,0.0,0.0,0.0,0.0,0.0,255.0,0.0,0.0,0.0,0.0,0.0,0.0,0.0,0.0,6,0,0
S01_day2,S01,042_rest_42,rest,199,29300,29600,1,,,,,,,0,103.0,0.0,103.0,103.0,103.0,103.0,0.0,0.0,0.0,0.0,0.0,0.0,0.0,0.0,0.0,0.0,0.0,0.0,0.0,0.0,0.0,255.0,0.0,0.0,0.0,0.0,0.0,255.0,0.0,0.0,0.0,0.0,0.0,0.0,0.0,0.0,1,0,0
S01_day2,S01,043_rest_43,rest,200,29500,29800,3,,,,,,,0,101.0,0.0,101.0,101.0,101.0,101.0,0.0,0.0,0.0,0.0,0.0,0.0,0.0,0.0,0.0,0.0,0.0,0.0,0.0,0.0,0.0,255.0,0.0,0.0,0.0,0.0,0.0,255.0,0.0,0.0,0.0,0.0,0.0,0.0,0.0,0.0,3,0,0
S01_day2,S01,043_rest_43,rest,201,29600,29900,7,,,,,,,0,100.42857142857143,1.5907898179514348,98.0,102.0,100.42857142857143,100.44116970360595,0.0,0.0,0.0,0.0,0.0,0.0,0.0,0.0,0.0,0.0,0.0,0.0,0.0,0.0,0.0,255.0,0.0,0.0,0.0,0.0,0.0,255.0,0.0,0.0,0.0,0.0,0.0,0.0,0.0,0.0,7,0,0
S01_day2,S01,043_rest_43,rest,202,29700,30000,7,,,,,,,0,100.42857142857143,1.5907898179514348,98.0,102.0,100.42857142857143,100.44116970360595,0.0,0.0,0.0,0.0,0.0,0.0,0.0,0.0,0.0,0.0,0.0,0.0,0.0,0.0,0.0,255.0,0.0,0.0,0.0,0.0,0.0,255.0,0.0,0.0,0.0,0.0,0.0,0.0,0.0,0.0,7,0,0
S01_day2,S01,043_rest_43,rest,203,29800,30100,4,,,,,,,0,100.0,2.0,98.0,102.0,100.0,100.0199980003999,0.0,0.0,0.0,0.0,0.0,0.0,0.0,0.0,0.0,0.0,0.0,0.0,0.0,0.0,0.0,255.0,0.0,0.0,0.0,0.0,0.0,255.0,0.0,0.0,0.0,0.0,0.0,0.0,0.0,0.0,4,0,0
S01_day2,S01,044_rest_44,rest,204,30000,30300,3,,,,,,,0,102.0,15.556349186104045,91.0,124.0,102.0,103.17945531936094,0.0,0.0,0.0,0.0,0.0,0.0,0.0,0.0,0.0,0.0,0.0,0.0,0.0,0.0,0.0,255.0,0.0,0.0,0.0,0.0,0.0,255.0,0.0,0.0,0.0,0.0,0.0,0.0,0.0,0.0,3,0,0
S01_day2,S01,044_rest_44,rest,205,30100,30400,7,,,,,,,0,108.57142857142857,14.110352256989424,91.0,124.0,108.57142857142857,109.48450640550536,0.0,0.0,0.0,0.0,0.0,0.0,0.0,0.0,0.0,0.0,0.0,0.0,0.0,0.0,0.0,255.0,0.0,0.0,0.0,0.0,0.0,255.0,0.0,0.0,0.0,0.0,0.0,0.0,0.0,0.0,7,0,0
S01_day2,S01,044_rest_44,rest,206,30200,30500,7,,,,,,,0,108.57142857142857,14.110352256989424,91.0,124.0,108.57142857142857,109.48450640550536,0.0,0.0,0.0,0.0,0.0,0.0,0.0,0.0,0.0,0.0,0.0,0.0,0.0,0.0,0.0,255.0,0.0,0.0,0.0,0.0,0.0,255.0,0.0,0.0,0.0,0.0,0.0,0.0,0.0,0.0,7,0,0
S01_day2,S01,044_rest_44,rest,207,30300,30600,4,,,,,,,0,113.5,10.5,103.0,124.0,113.5,113.98464808911768,0.0,0.0,0.0,0.0,0.0,0.0,0.0,0.0,0.0,0.0,0.0,0.0,0.0,0.0,0.0,255.0,0.0,0.0,0.0,0.0,0.0,255.0,0.0,0.0,0.0,0.0,0.0,0.0,0.0,0.0,4,0,0
S01_day2,S01,045_rest_45,rest,208,31200,31500,3,,,,,,,0,98.0,9.899494936611665,84.0,105.0,98.0,98.49873095629202,0.0,0.0,0.0,0.0,0.0,0.0,0.0,0.0,0.0,0.0,0.0,0.0,0.0,0.0,0.0,255.0,0.0,0.0,0.0,0.0,0.0,255.0,0.0,0.0,0.0,0.0,0.0,0.0,0.0,0.0,3,0,0
S01_day2,S01,045_rest_45,rest,209,31300,31600,8,,,,,,,0,97.375,11.346117177254957,84.0,111.0,97.375,98.03379519329036,0.0,0.0,0.0,0.0,0.0,0.0,0.0,0.0,0.0,0.0,0.0,0.0,0.0,0.0,0.0,255.0,0.0,0.0,0.0,0.0,0.0,255.0,0.0,0.0,0.0,0.0,0.0,0.0,0.0,0.0,8,0,0
S01_day2,S01,045_rest_45,rest,210,31400,31700,13,,,,,,,0,99.46153846153847,11.153580898702682,84.0,115.0,99.46153846153847,100.08496390567366,0.0,0.0,0.0,0.0,0.0,0.0,0.0,0.0,0.0,0.0,0.0,0.0,0.0,0.0,0.0,255.0,0.0,0.0,0.0,0.0,0.0,255.0,0.0,0.0,0.0,0.0,0.0,0.0,0.0,0.0,13,0,0
S01_day2,S01,045_rest_45,rest,211,31500,31800,15,,,,,,,0,97.66666666666667,10.156552345927016,84.0,115.0,97.66666666666667,98.19334668567588,0.0,0.0,0.0,0.0,0.0,0.0,0.0,0.0,0.0,0.0,0.0,0.0,0.0,0.0,0.0,255.0,0.0,0.0,0.0,0.0,0.0,255.0,0.0,0.0,0.0,0.0,0.0,0.0,0.0,0.0,15,0,0
S01_day2,S01,045_rest_45,rest,212,31600,31900,15,,,,,,,0,97.2,7.79059261759549,89.0,115.0,97.2,97.51170869866517,0.0,0.0,0.0,0.0,0.0,0.0,0.0,0.0,0.0,0.0,0.0,0.0,0.0,0.0,0.0,255.0,0.0,0.0,0.0,0.0,0.0,255.0,0.0,0.0,0.0,0.0,0.0,0.0,0.0,0.0,15,0,0
S01_day2,S01,045_rest_45,rest,213,31700,32000,15,,,,,,,0,95.6,4.095526014242045,89.0,101.0,95.6,95.68768642481295,0.0,0.0,0.0,0.0,0.0,0.0,0.0,0.0,0.0,0.0,0.0,0.0,0.0,0.0,0.0,255.0,0.0,0.0,0.0,0.0,0.0,255.0,0.0,0.0,0.0,0.0,0.0,0.0,0.0,0.0,15,0,0
S01_day2,S01,045_rest_45,rest,214,31800,32100,14,,,,,,,0,96.71428571428571,3.0101867865293537,91.0,101.0,96.71428571428571,96.7611197006023,0.0,0.0,0.0,0.0,0.0,0.0,0.0,0.0,0.0,0.0,0.0,0.0,0.0,0.0,0.0,255.0,0.0,0.0,0.0,0.0,0.0,255.0,0.0,0.0,0.0,0.0,0.0,0.0,0.0,0.0,14,0,0
S01_day2,S01,045_rest_45,rest,215,31900,32200,9,,,,,,,0,97.33333333333333,2.0,96.0,101.0,97.33333333333333,97.35387911006822,0.0,0.0,0.0,0.0,0.0,0.0,0.0,0.0,0.0,0.0,0.0,0.0,0.0,0.0,0.0,255.0,0.0,0.0,0.0,0.0,0.0,255.0,0.0,0.0,0.0,0.0,0.0,0.0,0.0,0.0,9,0,0
S01_day2,S01,045_rest_45,rest,216,32000,32300,4,,,,,,,0,96.5,0.5,96.0,97.0,96.5,96.50129532809392,0.0,0.0,0.0,0.0,0.0,0.0,0.0,0.0,0.0,0.0,0.0,0.0,0.0,0.0,0.0,255.0,0.0,0.0,0.0,0.0,0.0,255.0,0.0,0.0,0.0,0.0,0.0,0.0,0.0,0.0,4,0,0
S01_day2,S01,046_rest_46,rest,217,32400,32700,4,,,,,,,0,108.75,0.82915619758885,108.0,110.0,108.75,108.75316087360403,0.0,0.0,0.0,0.0,0.0,0.0,0.0,0.0,0.0,0.0,0.0,0.0,0.0,0.0,0.0,255.0,0.0,0.0,0.0,0.0,0.0,255.0,0.0,0.0,0.0,0.0,0.0,0.0,0.0,0.0,4,0,0
S01_day2,S01,046_rest_46,rest,218,32500,32800,9,,,,,,,0,110.22222222222223,6.4769296185731875,97.0,120.0,110.22222222222223,110.41235840651575,0.0,0.0,0.0,0.0,0.0,0.0,0.0,0.0,0.0,0.0,0.0,0.0,0.0,0.0,0.0,255.0,0.0,0.0,0.0,0.0,0.0,255.0,0.0,0.0,0.0,0.0,0.0,0.0,0.0,0.0,9,0,0
S01_day2,S01,046_rest_46,rest,219,32600,32900,14,,,,,,,0,106.07142857142857,7.731792304821564,97.0,120.0,106.07142857142857,106.35284938086319,0.0,0.0,0.0,0.0,0.0,0.0,0.0,0.0,0.0,0.0,0.0,0.0,0.0,0.0,0.0,255.0,0.0,0.0,0.0,0.0,0.0,255.0,0.0,0.0,0.0,0.0,0.0,0.0,0.0,0.0,14,0,0
S01_day2,S01,046_rest_46,rest,220,32700,33000,15,,,,,,,0,102.26666666666667,8.902933349308093,90.0,120.0,102.26666666666667,102.65346235433724,0.0,0.0,0.0,0.0,0.0,0.0,0.0,0.0,0.0,0.0,0.0,0.0,0.0,0.0,0.0,255.0,0.0,0.0,0.0,0.0,0.0,255.0,0.0,0.0,0.0,0.0,0.0,0.0,0.0,0.0,15,0,0
S01_day2,S01,046_rest_46,rest,221,32800,33100,15,,,,,,,0,99.2,5.062278801751901,90.0,108.0,99.2,99.32908268310277,0.0,0.0,0.0,0.0,0.0,0.0,0.0,0.0,0.0,0.0,0.0,0.0,0.0,0.0,0.0,255.0,0.0,0.0,0.0,0.0,0.0,255.0,0.0,0.0,0.0,0.0,0.0,0.0,0.0,0.0,15,0,0
S01_day2,S01,046_rest_46,rest,222,32900,33200,15,,,,,,,0,101.46666666666667,6.4277177563701064,90.0,111.0,101.46666666666667,101.67005458835949,0.0,0.0,0.0,0.0,0.0,0.0,0.0,0.0,0.0,0.0,0.0,0.0,0.0,0.0,0.0,255.0,0.0,0.0,0.0,0.0,0.0,255.0,0.0,0.0,0.0,0.0,0.0,0.0,0.0,0.0,15,0,0
S01_day2,S01,046_rest_46,rest,223,33000,33300,12,,,,,,,0,104.33333333333333,5.022173057773122,98.0,111.0,104.33333333333333,104.4541366661305,0.0,0.0,0.0,0.0,0.0,0.0,0.0,0.0,0.0,0.0,0.0,0.0,0.0,0.0,0.0,255.0,0.0,0.0,0.0,0.0,0.0,255.0,0.0,0.0,0.0,0.0,0.0,0.0,0.0,0.0,12,0,0
S01_day2,S01,046_rest_46,rest,224,33100,33400,7,,,,,,,0,105.85714285714286,4.642307659791977,99.0,111.0,105.85714285714286,105.95888690565654,0.0,0.0,0.0,0.0,0.0,0.0,0.0,0.0,0.0,0.0,0.0,0.0,0.0,0.0,0.0,255.0,0.0,0.0,0.0,0.0,0.0,255.0,0.0,0.0,0.0,0.0,0.0,0.0,0.0,0.0,7,0,0
S01_day2,S01,046_rest_46,rest,225,33200,33500,2,,,,,,,0,107.0,0.0,107.0,107.0,107.0,107.0,0.0,0.0,0.0,0.0,0.0,0.0,0.0,0.0,0.0,0.0,0.0,0.0,0.0,0.0,0.0,255.0,0.0,0.0,0.0,0.0,0.0,255.0,0.0,0.0,0.0,0.0,0.0,0.0,0.0,0.0,2,0,0
S01_day2,S01,047_rest_47,rest,226,34200,34500,1,,,,,,,0,93.0,0.0,93.0,93.0,93.0,93.0,0.0,0.0,0.0,0.0,0.0,0.0,0.0,0.0,0.0,0.0,0.0,0.0,0.0,0.0,0.0,255.0,0.0,0.0,0.0,0.0,0.0,255.0,0.0,0.0,0.0,0.0,0.0,0.0,0.0,0.0,1,0,0
S01_day2,S01,047_rest_47,rest,227,34300,34600,6,,,,,,,0,92.33333333333333,1.3743685418725535,91.0,94.0,92.33333333333333,92.34356140702683,0.0,0.0,0.0,0.0,0.0,0.0,0.0,0.0,0.0,0.0,0.0,0.0,0.0,0.0,0.0,255.0,0.0,0.0,0.0,0.0,0.0,255.0,0.0,0.0,0.0,0.0,0.0,0.0,0.0,0.0,6,0,0
S01_day2,S01,047_rest_47,rest,228,34400,34700,11,,,,,,,0,83.45454545454545,11.276392366062314,66.0,94.0,83.45454545454545,84.2129335780329,0.0,0.0,0.0,0.0,0.0,0.0,0.0,0.0,0.0,0.0,0.0,0.0,0.0,0.0,0.0,255.0,0.0,0.0,0.0,0.0,0.0,255.0,0.0,0.0,0.0,0.0,0.0,0.0,0.0,0.0,11,0,0
S01_day2,S01,047_rest_47,rest,229,34500,34800,15,,,,,,,0,82.06666666666666,9.34142506378027,66.0,94.0,82.06666666666666,82.59661009993086,0.0,0.0,0.0,0.0,0.0,0.0,0.0,0.0,0.0,0.0,0.0,0.0,0.0,0.0,0.0,255.0,0.0,0.0,0.0,0.0,0.0,255.0,0.0,0.0,0.0,0.0,0.0,0.0,0.0,0.0,15,0,0
S01_day2,S01,047_rest_47,rest,230,34600,34900,15,,,,,,,0,72.4,9.090654541890808,60.0,83.0,72.4,72.96848634856009,0.0,0.0,0.0,0.0,0.0,0.0,0.0,0.0,0.0,0.0,0.0,0.0,0.0,0.0,0.0,255.0,0.0,0.0,0.0,0.0,0.0,255.0,0.0,0.0,0.0,0.0,0.0,0.0,0.0,0.0,15,0,0
S01_day2,S01,047_rest_47,rest,231,34700,35000,10,,,,,,,0,72.2,9.4424573072903,60.0,82.0,72.2,72.81483365359011,0.0,0.0,0.0,0.0,0.0,0.0,0.0,0.0,0.0,0.0,0.0,0.0,0.0,0.0,0.0,255.0,0.0,0.0,0.0,0.0,0.0,255.0,0.0,0.0,0.0,0.0,0.0,0.0,0.0,0.0,10,0,0
S01_day2,S01,047_rest_47,rest,232,34800,35100,5,,,,,,,0,63.2,3.919183588453085,60.0,68.0,63.2,63.32140238497565,0.0,0.0,0.0,0.0,0.0,0.0,0.0,0.0,0.0,0.0,0.0,0.0,0.0,0.0,0.0,255.0,0.0,0.0,0.0,0.0,0.0,255.0,0.0,0.0,0.0,0.0,0.0,0.0,0.0,0.0,5,0,0
S01_day2,S01,048_rest_48,rest,233,35700,36000,5,,,,,,,0,70.8,5.878775382679628,66.0,78.0,70.8,71.04364855495528,0.0,0.0,0.0,0.0,0.0,0.0,0.0,0.0,0.0,0.0,0.0,0.0,0.0,0.0,0.0,255.0,0.0,0.0,0.0,0.0,0.0,255.0,0.0,0.0,0.0,0.0,0.0,0.0,0.0,0.0,5,0,0
S01_day2,S01,048_rest_48,rest,234,35800,36100,10,,,,,,,0,71.5,4.863126566315131,66.0,78.0,71.5,71.66519378331436,0.0,0.0,0.0,0.0,0.0,0.0,0.0,0.0,0.0,0.0,0.0,0.0,0.0,0.0,0.0,255.0,0.0,0.0,0.0,0.0,0.0,255.0,0.0,0.0,0.0,0.0,0.0,0.0,0.0,0.0,10,0,0
S01_day2,S01,048_rest_48,rest,235,35900,36200,15,,,,,,,0,71.66666666666667,4.880801391392834,66.0,78.0,71.66666666666667,71.83267594440105,0.0,0.0,0.0,0.0,0.0,0.0,0.0,0.0,0.0,0.0,0.0,0.0,0.0,0.0,0.0,255.0,0.0,0.0,0.0,0.0,0.0,255.0,0.0,0.0,0.0,0.0,0.0,0.0,0.0,0.0,15,0,0
S01_day2,S01,048_rest_48,rest,236,36000,36300,15,,,,,,,0,74.66666666666667,6.214677966091423,68.0,85.0,74.66666666666667,74.92485123998134,0.0,0.0,0.0,0.0,0.0,0.0,0.0,0.0,0.0,0.0,0.0,0.0,0.0,0.0,0.0,255.0,0.0,0.0,0.0,0.0,0.0,255.0,0.0,0.0,0.0,0.0,0.0,0.0,0.0,0.0,15,0,0
S01_day2,S01,048_rest_48,rest,237,36100,36400,15,,,,,,,0,72.6,7.8383671769061705,62.0,85.0,72.6,73.02191451886208,0.0,0.0,0.0,0.0,0.0,0.0,0.0,0.0,0.0,0.0,0.0,0.0,0.0,0.0,0.0,255.0,0.0,0.0,0.0,0.0,0.0,255.0,0.0,0.0,0.0,0.0,0.0,0.0,0.0,0.0,15,0,0
S01_day2,S01,048_rest_48,rest,238,36200,36500,15,,,,,,,0,74.26666666666667,7.549540089009102,62.0,85.0,74.26666666666667,74.64940276608604,0.0,0.0,0.0,0.0,0.0,0.0,0.0,0.0,0.0,0.0,0.0,0.0,0.0,0.0,0.0,255.0,0.0,0.0,0.0,0.0,0.0,255.0,0.0,0.0,0.0,0.0,0.0,0.0,0.0,0.0,15,0,0
S01_day2,S01,048_rest_48,rest,239,36300,36600,15,,,,,,,0,71.8,5.44303836718672,62.0,77.0,71.8,72.00601826699395,0.0,0.0,0.0,0.0,0.0,0.0,0.0,0.0,0.0,0.0,0.0,0.0,0.0,0.0,0.0,255.0,0.0,0.0,0.0,0.0,0.0,255.0,0.0,0.0,0.0,0.0,0.0,0.0,0.0,0.0,15,0,0
S01_day2,S01,048_rest_48,rest,240,36400,36700,15,,,,,,,0,82.86666666666666,12.317286858539731,70.0,107.0,82.86666666666666,83.77708517249809,0.0,0.0,0.0,0.0,0.0,0.0,0.0,0.0,0.0,0.0,0.0,0.0,0.0,0.0,0.0,255.0,0.0,0.0,0.0,0.0,0.0,255.0,0.0,0.0,0.0,0.0,0.0,0.0,0.0,0.0,15,0,0
S01_day2,S01,048_rest_48,rest,241,36500,36800,15,,,,,,,0,81.46666666666667,14.518340890825721,64.0,107.0,81.46666666666667,82.7502265857925,0.0,0.0,0.0,0.0,0.0,0.0,0.0,0.0,0.0,0.0,0.0,0.0,0.0,0.0,0.0,255.0,0.0,0.0,0.0,0.0,0.0,255.0,0.0,0.0,0.0,0.0,0.0,0.0,0.0,0.0,15,0,0
S01_day2,S01,048_rest_48,rest,242,36600,36900,13,,,,,,,0,90.23076923076923,16.015155544064868,64.0,109.0,90.23076923076923,91.64102205386475,0.0,0.0,0.0,0.0,0.0,0.0,0.0,0.0,0.0,0.0,0.0,0.0,0.0,0.0,0.0,255.0,0.0,0.0,0.0,0.0,0.0,255.0,0.0,0.0,0.0,0.0,0.0,0.0,0.0,0.0,13,0,0
S01_day2,S01,048_rest_48,rest,243,36700,37000,8,,,,,,,0,84.625,17.599272001989174,64.0,109.0,84.625,86.43566972031859,0.0,0.0,0.0,0.0,0.0,0.0,0.0,0.0,0.0,0.0,0.0,0.0,0.0,0.0,0.0,255.0,0.0,0.0,0.0,0.0,0.0,255.0,0.0,0.0,0.0,0.0,0.0,0.0,0.0,0.0,8,0,0
S01_day2,S01,048_rest_48,rest,244,36800,37100,3,,,,,,,0,104.33333333333333,3.2998316455372216,102.0,109.0,104.33333333333333,104.38550346352378,0.0,0.0,0.0,0.0,0.0,0.0,0.0,0.0,0.0,0.0,0.0,0.0,0.0,0.0,0.0,255.0,0.0,0.0,0.0,0.0,0.0,255.0,0.0,0.0,0.0,0.0,0.0,0.0,0.0,0.0,3,0,0
S01_day2,S01,049_rest_49,rest,245,37500,37800,2,,,,,,,0,84.0,0.0,84.0,84.0,84.0,84.0,0.0,0.0,0.0,0.0,0.0,0.0,0.0,0.0,0.0,0.0,0.0,0.0,0.0,0.0,0.0,255.0,0.0,0.0,0.0,0.0,0.0,255.0,0.0,0.0,0.0,0.0,0.0,0.0,0.0,0.0,2,0,0
S01_day2,S01,049_rest_49,rest,246,37600,37900,7,,,,,,,0,87.85714285714286,3.481730744843983,84.0,93.0,87.85714285714286,87.92610533851708,0.0,0.0,0.0,0.0,0.0,0.0,0.0,0.0,0.0,0.0,0.0,0.0,0.0,0.0,0.0,255.0,0.0,0.0,0.0,0.0,0.0,255.0,0.0,0.0,0.0,0.0,0.0,0.0,0.0,0.0,7,0,0
S01_day2,S01,049_rest_49,rest,247,37700,38000,12,,,,,,,0,87.91666666666667,5.438417866336577,82.0,97.0,87.91666666666667,88.08471301347736,0.0,0.0,0.0,0.0,0.0,0.0,0.0,0.0,0.0,0.0,0.0,0.0,0.0,0.0,0.0,255.0,0.0,0.0,0.0,0.0,0.0,255.0,0.0,0.0,0.0,0.0,0.0,0.0,0.0,0.0,12,0,0
S01_day2,S01,049_rest_49,rest,248,37800,38100,15,,,,,,,0,86.93333333333334,5.359933664597808,81.0,97.0,86.93333333333334,87.09841177273746,0.0,0.0,0.0,0.0,0.0,0.0,0.0,0.0,0.0,0.0,0.0,0.0,0.0,0.0,0.0,255.0,0.0,0.0,0.0,0.0,0.0,255.0,0.0,0.0,0.0,0.0,0.0,0.0,0.0,0.0,15,0,0
S01_day2,S01,049_rest_49,rest,249,37900,38200,15,,,,,,,0,81.2,8.27204126359792,69.0,97.0,81.2,81.62025892305579,0.0,0.0,0.0,0.0,0.0,0.0,0.0,0.0,0.0,0.0,0.0,0.0,0.0,0.0,0.0,255.0,0.0,0.0,0.0,0.0,0.0,255.0,0.0,0.0,0.0,0.0,0.0,0.0,0.0,0.0,15,0,0
S01_day2,S01,049_rest_49,rest,250,38000,38300,15,,,,,,,0,80.26666666666667,6.587530307752333,69.0,88.0,80.26666666666667,80.53653415272682,0.0,0.0,0.0,0.0,0.0,0.0,0.0,0.0,0.0,0.0,0.0,0.0,0.0,0.0,0.0,255.0,0.0,0.0,0.0,0.0,0.0,255.0,0.0,0.0,0.0,0.0,0.0,0.0,0.0,0.0,15,0,0
S01_day2,S01,049_rest_49,rest,251,38100,38400,12,,,,,,,0,85.58333333333333,16.83477716580241,69.0,120.0,85.58333333333333,87.22337225002636,0.0,0.0,0.0,0.0,0.0,0.0,0.0,0.0,0.0,0.0,0.0,0.0,0.0,0.0,0.0,255.0,0.0,0.0,0.0,0.0,0.0,255.0,0.0,0.0,0.0,0.0,0.0,0.0,0.0,0.0,12,0,0
S01_day2,S01,049_rest_49,rest,252,38200,38500,7,,,,,,,0,95.14285714285714,15.985963230539575,81.0,120.0,95.14285714285714,96.47649602734485,0.0,0.0,0.0,0.0,0.0,0.0,0.0,0.0,0.0,0.0,0.0,0.0,0.0,0.0,0.0,255.0,0.0,0.0,0.0,0.0,0.0,255.0,0.0,0.0,0.0,0.0,0.0,0.0,0.0,0.0,7,0,0
S01_day2,S01,049_rest_49,rest,253,38300,38600,2,,,,,,,0,120.0,0.0,120.0,120.0,120.0,120.0,0.0,0.0,0.0,0.0,0.0,0.0,0.0,0.0,0.0,0.0,0.0,0.0,0.0,0.0,0.0,255.0,0.0,0.0,0.0,0.0,0.0,255.0,0.0,0.0,0.0,0.0,0.0,0.0,0.0,0.0,2,0,0
S01_day2,S01,050_rest_50,rest,254,38700,39000,3,,,,,,,0,85.33333333333333,3.2998316455372216,83.0,90.0,85.33333333333333,85.39711158269152,0.0,0.0,0.0,0.0,0.0,0.0,0.0,0.0,0.0,0.0,0.0,0.0,0.0,0.0,0.0,255.0,0.0,0.0,0.0,0.0,0.0,255.0,0.0,0.0,0.0,0.0,0.0,0.0,0.0,0.0,3,0,0
S01_day2,S01,050_rest_50,rest,255,38800,39100,8,,,,,,,0,86.875,3.4072532926097527,83.0,91.0,86.875,86.94179087182413,0.0,0.0,0.0,0.0,0.0,0.0,0.0,0.0,0.0,0.0,0.0,0.0,0.0,0.0,0.0,255.0,0.0,0.0,0.0,0.0,0.0,255.0,0.0,0.0,0.0,0.0,0.0,0.0,0.0,0.0,8,0,0
S01_day2,S01,050_rest_50,rest,256,38900,39200,13,,,,,,,0,85.0,5.948496901286525,74.0,91.0,85.0,85.20789056997371,0.0,0.0,0.0,0.0,0.0,0.0,0.0,0.0,0.0,0.0,0.0,0.0,0.0,0.0,0.0,255.0,0.0,0.0,0.0,0.0,0.0,255.0,0.0,0.0,0.0,0.0,0.0,0.0,0.0,0.0,13,0,0
S01_day2,S01,050_rest_50,rest,257,39000,39300,15,,,,,,,0,85.13333333333334,6.195338749594103,74.0,92.0,85.13333333333334,85.35845984240031,0.0,0.0,0.0,0.0,0.0,0.0,0.0,0.0,0.0,0.0,0.0,0.0,0.0,0.0,0.0,255.0,0.0,0.0,0.0,0.0,0.0,255.0,0.0,0.0,0.0,0.0,0.0,0.0,0.0,0.0,15,0,0
S01_day2,S01,050_rest_50,rest,258,39100,39400,15,,,,,,,0,83.2,6.472505954677318,74.0,92.0,83.2,83.45138305224985,0.0,0.0,0.0,0.0,0.0,0.0,0.0,0.0,0.0,0.0,0.0,0.0,0.0,0.0,0.0,255.0,0.0,0.0,0.0,0.0,0.0,255.0,0.0,0.0,0.0,0.0,0.0,0.0,0.0,0.0,15,0,0
S01_day2,S01,050_rest_50,rest,259,39200,39500,15,,,,,,,0,84.4,6.529931086925803,70.0,92.0,84.4,84.65222974027323,0.0,0.0,0.0,0.0,0.0,0.0,0.0,0.0,0.0,0.0,0.0,0.0,0.0,0.0,0.0,255.0,0.0,0.0,0.0,0.0,0.0,255.0,0.0,0.0,0.0,0.0,0.0,0.0,0.0,0.0,15,0,0
S01_day2,S01,050_rest_50,rest,260,39300,39600,14,,,,,,,0,81.14285714285714,7.60504665954638,70.0,90.0,81.14285714285714,81.49846624323675,0.0,0.0,0.0,0.0,0.0,0.0,0.0,0.0,0.0,0.0,0.0,0.0,0.0,0.0,0.0,255.0,0.0,0.0,0.0,0.0,0.0,255.0,0.0,0.0,0.0,0.0,0.0,0.0,0.0,0.0,14,0,0
S01_day2,S01,050_rest_50,rest,261,39400,39700,9,,,,,,,0,80.66666666666667,8.563488385776752,70.0,90.0,80.66666666666667,81.1199386368385,0.0,0.0,0.0,0.0,0.0,0.0,0.0,0.0,0.0,0.0,0.0,0.0,0.0,0.0,0.0,255.0,0.0,0.0,0.0,0.0,0.0,255.0,0.0,0.0,0.0,0.0,0.0,0.0,0.0,0.0,9,0,0
S01_day2,S01,050_rest_50,rest,262,39500,39800,4,,,,,,,0,74.5,4.5,70.0,79.0,74.5,74.63578230312856,0.0,0.0,0.0,0.0,0.0,0.0,0.0,0.0,0.0,0.0,0.0,0.0,0.0,0.0,0.0,255.0,0.0,0.0,0.0,0.0,0.0,255.0,0.0,0.0,0.0,0.0,0.0,0.0,0.0,0.0,4,0,0
S01_day2,S01,051_rest_51,rest,263,40300,40600,1,,,,,,,0,86.0,0.0,86.0,86.0,86.0,86.0,0.0,0.0,0.0,0.0,0.0,0.0,0.0,0.0,0.0,0.0,0.0,0.0,0.0,0.0,0.0,255.0,0.0,0.0,0.0,0.0,0.0,255.0,0.0,0.0,0.0,0.0,0.0,0.0,0.0,0.0,1,0,0
S01_day2,S01,051_rest_51,rest,264,40400,40700,6,,,,,,,0,88.0,5.385164807134504,85.0,100.0,88.0,88.16461875378354,0.0,0.0,0.0,0.0,0.0,0.0,0.0,0.0,0.0,0.0,0.0,0.0,0.0,0.0,0.0,255.0,0.0,0.0,0.0,0.0,0.0,255.0,0.0,0.0,0.0,0.0,0.0,0.0,0.0,0.0,6,0,0
S01_day2,S01,051_rest_51,rest,265,40500,40800,11,,,,,,,0,90.36363636363636,7.351842406965719,83.0,100.0,90.36363636363636,90.66221022915978,0.0,0.0,0.0,0.0,0.0,0.0,0.0,0.0,0.0,0.0,0.0,0.0,0.0,0.0,0.0,255.0,0.0,0.0,0.0,0.0,0.0,255.0,0.0,0.0,0.0,0.0,0.0,0.0,0.0,0.0,11,0,0
S01_day2,S01,051_rest_51,rest,266,40600,40900,15,,,,,,,0,93.2,7.194442299441979,83.0,100.0,93.2,93.47726996441435,0.0,0.0,0.0,0.0,0.0,0.0,0.0,0.0,0.0,0.0,0.0,0.0,0.0,0.0,0.0,255.0,0.0,0.0,0.0,0.0,0.0,255.0,0.0,0.0,0.0,0.0,0.0,0.0,0.0,0.0,15,0,0
S01_day2,S01,051_rest_51,rest,267,40700,41000,15,,,,,,,0,98.93333333333334,7.767167365834785,83.0,114.0,98.93333333333334,99.23776163000319,0.0,0.0,0.0,0.0,0.0,0.0,0.0,0.0,0.0,0.0,0.0,0.0,0.0,0.0,0.0,255.0,0.0,0.0,0.0,0.0,0.0,255.0,0.0,0.0,0.0,0.0,0.0,0.0,0.0,0.0,15,0,0
S01_day2,S01,051_rest_51,rest,268,40800,41100,15,,,,,,,0,102.73333333333333,6.495810615739621,95.0,114.0,102.73333333333333,102.93849296222155,0.0,0.0,0.0,0.0,0.0,0.0,0.0,0.0,0.0,0.0,0.0,0.0,0.0,0.0,0.0,255.0,0.0,0.0,0.0,0.0,0.0,255.0,0.0,0.0,0.0,0.0,0.0,0.0,0.0,0.0,15,0,0
S01_day2,S01,051_rest_51,rest,269,40900,41200,15,,,,,,,0,100.46666666666667,9.243856818930553,86.0,114.0,100.46666666666667,100.89103032480142,0.0,0.0,0.0,0.0,0.0,0.0,0.0,0.0,0.0,0.0,0.0,0.0,0.0,0.0,0.0,255.0,0.0,0.0,0.0,0.0,0.0,255.0,0.0,0.0,0.0,0.0,0.0,0.0,0.0,0.0,15,0,0
S01_day2,S01,051_rest_51,rest,270,41000,41300,12,,,,,,,0,95.91666666666667,9.92856429142144,86.0,114.0,95.91666666666667,96.42916225568557,0.0,0.0,0.0,0.0,0.0,0.0,0.0,0.0,0.0,0.0,0.0,0.0,0.0,0.0,0.0,255.0,0.0,0.0,0.0,0.0,0.0,255.0,0.0,0.0,0.0,0.0,0.0,0.0,0.0,0.0,12,0,0
S01_day2,S01,051_rest_51,rest,271,41100,41400,7,,,,,,,0,89.71428571428571,5.872801368884133,86.0,99.0,89.71428571428571,89.90630043074209,0.0,0.0,0.0,0.0,0.0,0.0,0.0,0.0,0.0,0.0,0.0,0.0,0.0,0.0,0.0,255.0,0.0,0.0,0.0,0.0,0.0,255.0,0.0,0.0,0.0,0.0,0.0,0.0,0.0,0.0,7,0,0
S01_day2,S01,051_rest_51,rest,272,41200,41500,2,,,,,,,0,86.0,0.0,86.0,86.0,86.0,86.0,0.0,0.0,0.0,0.0,0.0,0.0,0.0,0.0,0.0,0.0,0.0,0.0,0.0,0.0,0.0,255.0,0.0,0.0,0.0,0.0,0.0,255.0,0.0,0.0,0.0,0.0,0.0,0.0,0.0,0.0,2,0,0
S01_day2,S01,052_rest_52,rest,273,41600,41900,4,,,,,,,0,92.5,1.5,91.0,94.0,92.5,92.51216136270949,0.0,0.0,0.0,0.0,0.0,0.0,0.0,0.0,0.0,0.0,0.0,0.0,0.0,0.0,0.0,255.0,0.0,0.0,0.0,0.0,0.0,255.0,0.0,0.0,0.0,0.0,0.0,0.0,0.0,0.0,4,0,0
S01_day2,S01,052_rest_52,rest,274,41700,42000,9,,,,,,,0,86.88888888888889,8.824768734073237,73.0,94.0,86.88888888888889,87.33587782552802,0.0,0.0,0.0,0.0,0.0,0.0,0.0,0.0,0.0,0.0,0.0,0.0,0.0,0.0,0.0,255.0,0.0,0.0,0.0,0.0,0.0,255.0,0.0,0.0,0.0,0.0,0.0,0.0,0.0,0.0,9,0,0
S01_day2,S01,052_rest_52,rest,275,41800,42100,14,,,,,,,0,84.5,7.988831489737944,73.0,94.0,84.5,84.87680147467522,0.0,0.0,0.0,0.0,0.0,0.0,0.0,0.0,0.0,0.0,0.0,0.0,0.0,0.0,0.0,255.0,0.0,0.0,0.0,0.0,0.0,255.0,0.0,0.0,0.0,0.0,0.0,0.0,0.0,0.0,14,0,0
S01_day2,S01,052_rest_52,rest,276,41900,42200,15,,,,,,,0,78.13333333333334,9.091143431323086,61.0,94.0,78.13333333333334,78.66045173190061,0.0,0.0,0.0,0.0,0.0,0.0,0.0,0.0,0.0,0.0,0.0,0.0,0.0,0.0,0.0,255.0,0.0,0.0,0.0,0.0,0.0,255.0,0.0,0.0,0.0,0.0,0.0,0.0,0.0,0.0,15,0,0
S01_day2,S01,052_rest_52,rest,277,42000,42300,15,,,,,,,0,80.73333333333333,10.122362482257895,61.0,101.0,80.73333333333333,81.36543082497218,0.0,0.0,0.0,0.0,0.0,0.0,0.0,0.0,0.0,0.0,0.0,0.0,0.0,0.0,0.0,255.0,0.0,0.0,0.0,0.0,0.0,255.0,0.0,0.0,0.0,0.0,0.0,0.0,0.0,0.0,15,0,0
S01_day2,S01,052_rest_52,rest,278,42100,42400,15,,,,,,,0,87.06666666666666,13.30396766215085,61.0,104.0,87.06666666666666,88.07723883047197,0.0,0.0,0.0,0.0,0.0,0.0,0.0,0.0,0.0,0.0,0.0,0.0,0.0,0.0,0.0,255.0,0.0,0.0,0.0,0.0,0.0,255.0,0.0,0.0,0.0,0.0,0.0,0.0,0.0,0.0,15,0,0
S01_day2,S01,052_rest_52,rest,279,42200,42500,13,,,,,,,0,96.38461538461539,7.022364948324434,83.0,104.0,96.38461538461539,96.64009360667906,0.0,0.0,0.0,0.0,0.0,0.0,0.0,0.0,0.0,0.0,0.0,0.0,0.0,0.0,0.0,255.0,0.0,0.0,0.0,0.0,0.0,255.0,0.0,0.0,0.0,0.0,0.0,0.0,0.0,0.0,13,0,0
S01_day2,S01,052_rest_52,rest,280,42300,42600,8,,,,,,,0,100.25,3.59687364248454,95.0,104.0,100.25,100.31450543166726,0.0,0.0,0.0,0.0,0.0,0.0,0.0,0.0,0.0,0.0,0.0,0.0,0.0,0.0,0.0,255.0,0.0,0.0,0.0,0.0,0.0,255.0,0.0,0.0,0.0,0.0,0.0,0.0,0.0,0.0,8,0,0
S01_day2,S01,052_rest_52,rest,281,42400,42700,3,,,,,,,0,102.0,2.8284271247461903,98.0,104.0,102.0,102.03920815059278,0.0,0.0,0.0,0.0,0.0,0.0,0.0,0.0,0.0,0.0,0.0,0.0,0.0,0.0,0.0,255.0,0.0,0.0,0.0,0.0,0.0,255.0,0.0,0.0,0.0,0.0,0.0,0.0,0.0,0.0,3,0,0
S01_day2,S01,053_rest_53,rest,282,43200,43500,5,,,,,,,0,123.2,14.770240350109406,107.0,140.0,123.2,124.08223079877311,0.0,0.0,0.0,0.0,0.0,0.0,0.0,0.0,0.0,0.0,0.0,0.0,0.0,0.0,0.0,255.0,0.0,0.0,0.0,0.0,0.0,255.0,0.0,0.0,0.0,0.0,0.0,0.0,0.0,0.0,5,0,0
S01_day2,S01,053_rest_53,rest,283,43300,43600,10,,,,,,,0,116.4,15.186836405255704,95.0,140.0,116.4,117.38654096616017,0.0,0.0,0.0,0.0,0.0,0.0,0.0,0.0,0.0,0.0,0.0,0.0,0.0,0.0,0.0,255.0,0.0,0.0,0.0,0.0,0.0,255.0,0.0,0.0,0.0,0.0,0.0,0.0,0.0,0.0,10,0,0
S01_day2,S01,053_rest_53,rest,284,43400,43700,15,,,,,,,0,114.13333333333334,13.260802724152443,95.0,140.0,114.13333333333334,114.90111690782935,0.0,0.0,0.0,0.0,0.0,0.0,0.0,0.0,0.0,0.0,0.0,0.0,0.0,0.0,0.0,255.0,0.0,0.0,0.0,0.0,0.0,255.0,0.0,0.0,0.0,0.0,0.0,0.0,0.0,0.0,15,0,0
S01_day2,S01,053_rest_53,rest,285,43500,43800,15,,,,,,,0,107.13333333333334,8.838300490227494,95.0,122.0,107.13333333333334,107.49728678746578,0.0,0.0,0.0,0.0,0.0,0.0,0.0,0.0,0.0,0.0,0.0,0.0,0.0,0.0,0.0,255.0,0.0,0.0,0.0,0.0,0.0,255.0,0.0,0.0,0.0,0.0,0.0,0.0,0.0,0.0,15,0,0
S01_day2,S01,053_rest_53,rest,286,43600,43900,15,,,,,,,0,103.86666666666666,10.726084508751965,87.0,119.0,103.86666666666666,104.41902764024061,0.0,0.0,0.0,0.0,0.0,0.0,0.0,0.0,0.0,0.0,0.0,0.0,0.0,0.0,0.0,255.0,0.0,0.0,0.0,0.0,0.0,255.0,0.0,0.0,0.0,0.0,0.0,0.0,0.0,0.0,15,0,0
S01_day2,S01,053_rest_53,rest,287,43700,44000,15,,,,,,,0,103.66666666666667,10.149986316356403,87.0,119.0,103.66666666666667,104.16237324485267,0.0,0.0,0.0,0.0,0.0,0.0,0.0,0.0,0.0,0.0,0.0,0.0,0.0,0.0,0.0,255.0,0.0,0.0,0.0,0.0,0.0,255.0,0.0,0.0,0.0,0.0,0.0,0.0,0.0,0.0,15,0,0
S01_day2,S01,053_rest_53,rest,288,43800,44100,10,,,,,,,0,104.4,12.126005112979296,87.0,119.0,104.4,105.10185535945595,0.0,0.0,0.0,0.0,0.0,0.0,0.0,0.0,0.0,0.0,0.0,0.0,0.0,0.0,0.0,255.0,0.0,0.0,0.0,0.0,0.0,255.0,0.0,0.0,0.0,0.0,0.0,0.0,0.0,0.0,10,0,0
S01_day2,S01,053_rest_53,rest,289,43900,44200,5,,,,,,,0,109.0,2.449489742783178,106.0,111.0,109.0,109.02751946183129,0.0,0.0,0.0,0.0,0.0,0.0,0.0,0.0,0.0,0.0,0.0,0.0,0.0,0.0,0.0,255.0,0.0,0.0,0.0,0.0,0.0,255.0,0.0,0.0,0.0,0.0,0.0,0.0,0.0,0.0,5,0,0
S01_day2,S01,054_rest_54,rest,290,44300,44600,4,,,,,,,0,89.25,7.361215932167728,85.0,102.0,89.25,89.55305689924828,0.0,0.0,0.0,0.0,0.0,0.0,0.0,0.0,0.0,0.0,0.0,0.0,0.0,0.0,0.0,255.0,0.0,0.0,0.0,0.0,0.0,255.0,0.0,0.0,0.0,0.0,0.0,0.0,0.0,0.0,4,0,0
S01_day2,S01,054_rest_54,rest,291,44400,44700,9,,,,,,,0,89.88888888888889,7.65135346697192,84.0,102.0,89.88888888888889,90.21394324357824,0.0,0.0,0.0,0.0,0.0,0.0,0.0,0.0,0.0,0.0,0.0,0.0,0.0,0.0,0.0,255.0,0.0,0.0,0.0,0.0,0.0,255.0,0.0,0.0,0.0,0.0,0.0,0.0,0.0,0.0,9,0,0
S01_day2,S01,054_rest_54,rest,292,44500,44800,14,,,,,,,0,91.0,14.609194756336553,75.0,120.0,91.0,92.16522430628903,0.0,0.0,0.0,0.0,0.0,0.0,0.0,0.0,0.0,0.0,0.0,0.0,0.0,0.0,0.0,255.0,0.0,0.0,0.0,0.0,0.0,255.0,0.0,0.0,0.0,0.0,0.0,0.0,0.0,0.0,14,0,0
S01_day2,S01,054_rest_54,rest,293,44600,44900,15,,,,,,,0,89.2,14.015229811411109,75.0,120.0,89.2,90.29433352468286,0.0,0.0,0.0,0.0,0.0,0.0,0.0,0.0,0.0,0.0,0.0,0.0,0.0,0.0,0.0,255.0,0.0,0.0,0.0,0.0,0.0,255.0,0.0,0.0,0.0,0.0,0.0,0.0,0.0,0.0,15,0,0
S01_day2,S01,054_rest_54,rest,294,44700,45000,15,,,,,,,0,84.4,14.57760840010002,74.0,120.0,84.4,85.6496740604812,0.0,0.0,0.0,0.0,0.0,0.0,0.0,0.0,0.0,0.0,0.0,0.0,0.0,0.0,0.0,255.0,0.0,0.0,0.0,0.0,0.0,255.0,0.0,0.0,0.0,0.0,0.0,0.0,0.0,0.0,15,0,0
S01_day2,S01,054_rest_54,rest,295,44800,45100,12,,,,,,,0,80.25,4.125631264828854,74.0,85.0,80.25,80.35597882754794,0.0,0.0,0.0,0.0,0.0,0.0,0.0,0.0,0.0,0.0,0.0,0.0,0.0,0.0,0.0,255.0,0.0,0.0,0.0,0.0,0.0,255.0,0.0,0.0,0.0,0.0,0.0,0.0,0.0,0.0,12,0,0
S01_day2,S01,054_rest_54,rest,296,44900,45200,7,,,,,,,0,77.42857142857143,3.063944369932459,74.0,81.0,77.42857142857143,77.48916975017495,0.0,0.0,0.0,0.0,0.0,0.0,0.0,0.0,0.0,0.0,0.0,0.0,0.0,0.0,0.0,255.0,0.0,0.0,0.0,0.0,0.0,255.0,0.0,0.0,0.0,0.0,0.0,0.0,0.0,0.0,7,0,0
S01_day2,S01,054_rest_54,rest,297,45000,45300,2,,,,,,,0,81.0,0.0,81.0,81.0,81.0,81.0,0.0,0.0,0.0,0.0,0.0,0.0,0.0,0.0,0.0,0.0,0.0,0.0,0.0,0.0,0.0,255.0,0.0,0.0,0.0,0.0,0.0,255.0,0.0,0.0,0.0,0.0,0.0,0.0,0.0,0.0,2,0,0
S01_day2,S01,055_rest_55,rest,298,45300,45600,3,,,,,,,0,78.0,0.0,78.0,78.0,78.0,78.0,0.0,0.0,0.0,0.0,0.0,0.0,0.0,0.0,0.0,0.0,0.0,0.0,0.0,0.0,0.0,255.0,0.0,0.0,0.0,0.0,0.0,255.0,0.0,0.0,0.0,0.0,0.0,0.0,0.0,0.0,3,0,0
S01_day2,S01,055_rest_55,rest,299,45400,45700,8,,,,,,,0,93.375,12.648492993238364,78.0,107.0,93.375,94.22778252723556,0.0,0.0,0.0,0.0,0.0,0.0,0.0,0.0,0.0,0.0,0.0,0.0,0.0,0.0,0.0,255.0,0.0,0.0,0.0,0.0,0.0,255.0,0.0,0.0,0.0,0.0,0.0,0.0,0.0,0.0,8,0,0
S01_day2,S01,055_rest_55,rest,300,45500,45800,13,,,,,,,0,94.92307692307692,10.118235924549895,78.0,107.0,94.92307692307692,95.46082563423192,0.0,0.0,0.0,0.0,0.0,0.0,0.0,0.0,0.0,0.0,0.0,0.0,0.0,0.0,0.0,255.0,0.0,0.0,0.0,0.0,0.0,255.0,0.0,0.0,0.0,0.0,0.0,0.0,0.0,0.0,13,0,0
S01_day2,S01,055_rest_55,rest,301,45600,45900,15,,,,,,,0,99.66666666666667,9.299940262651631,81.0,111.0,99.66666666666667,100.09961704888453,0.0,0.0,0.0,0.0,0.0,0.0,0.0,0.0,0.0,0.0,0.0,0.0,0.0,0.0,0.0,255.0,0.0,0.0,0.0,0.0,0.0,255.0,0.0,0.0,0.0,0.0,0.0,0.0,0.0,0.0,15,0,0
S01_day2,S01,055_rest_55,rest,302,45700,46000,11,,,,,,,0,97.63636363636364,10.101959551337528,81.0,111.0,97.63636363636364,98.15757276394466,0.0,0.0,0.0,0.0,0.0,0.0,0.0,0.0,0.0,0.0,0.0,0.0,0.0,0.0,0.0,255.0,0.0,0.0,0.0,0.0,0.0,255.0,0.0,0.0,0.0,0.0,0.0,0.0,0.0,0.0,11,0,0
S01_day2,S01,055_rest_55,rest,303,45800,46100,6,,,,,,,0,97.83333333333333,13.66768288904727,81.0,111.0,97.83333333333333,98.78343315893949,0.0,0.0,0.0,0.0,0.0,0.0,0.0,0.0,0.0,0.0,0.0,0.0,0.0,0.0,0.0,255.0,0.0,0.0,0.0,0.0,0.0,255.0,0.0,0.0,0.0,0.0,0.0,0.0,0.0,0.0,6,0,0
S01_day2,S01,055_rest_55,rest,304,45900,46200,1,,,,,,,0,92.0,0.0,92.0,92.0,92.0,92.0,0.0,0.0,0.0,0.0,0.0,0.0,0.0,0.0,0.0,0.0,0.0,0.0,0.0,0.0,0.0,255.0,0.0,0.0,0.0,0.0,0.0,255.0,0.0,0.0,0.0,0.0,0.0,0.0,0.0,0.0,1,0,0
S01_day2,S01,056_rest_56,rest,305,46200,46500,3,,,,,,,0,83.0,0.0,83.0,83.0,83.0,83.0,0.0,0.0,0.0,0.0,0.0,0.0,0.0,0.0,0.0,0.0,0.0,0.0,0.0,0.0,0.0,255.0,0.0,0.0,0.0,0.0,0.0,255.0,0.0,0.0,0.0,0.0,0.0,0.0,0.0,0.0,3,0,0
S01_day2,S01,056_rest_56,rest,306,46300,46600,8,,,,,,,0,92.375,10.61764451279096,83.0,110.0,92.375,92.98319740684335,0.0,0.0,0.0,0.0,0.0,0.0,0.0,0.0,0.0,0.0,0.0,0.0,0.0,0.0,0.0,255.0,0.0,0.0,0.0,0.0,0.0,255.0,0.0,0.0,0.0,0.0,0.0,0.0,0.0,0.0,8,0,0
S01_day2,S01,056_rest_56,rest,307,46400,46700,13,,,,,,,0,96.38461538461539,13.770305071970915,83.0,122.0,96.38461538461539,97.36331642161429,0.0,0.0,0.0,0.0,0.0,0.0,0.0,0.0,0.0,0.0,0.0,0.0,0.0,0.0,0.0,255.0,0.0,0.0,0.0,0.0,0.0,255.0,0.0,0.0,0.0,0.0,0.0,0.0,0.0,0.0,13,0,0
S01_day2,S01,056_rest_56,rest,308,46500,46800,13,,,,,,,0,96.84615384615384,13.358063850067689,84.0,122.0,96.84615384615384,97.76305736123122,0.0,0.0,0.0,0.0,0.0,0.0,0.0,0.0,0.0,0.0,0.0,0.0,0.0,0.0,0.0,255.0,0.0,0.0,0.0,0.0,0.0,255.0,0.0,0.0,0.0,0.0,0.0,0.0,0.0,0.0,13,0,0
S01_day2,S01,056_rest_56,rest,309,46600,46900,8,,,,,,,0,96.125,15.119833828451952,84.0,122.0,96.125,97.3068599842786,0.0,0.0,0.0,0.0,0.0,0.0,0.0,0.0,0.0,0.0,0.0,0.0,0.0,0.0,0.0,255.0,0.0,0.0,0.0,0.0,0.0,255.0,0.0,0.0,0.0,0.0,0.0,0.0,0.0,0.0,8,0,0
S01_day2,S01,056_rest_56,rest,310,46700,47000,3,,,,,,,0,85.0,1.4142135623730951,84.0,87.0,85.0,85.01176389182852,0.0,0.0,0.0,0.0,0.0,0.0,0.0,0.0,0.0,0.0,0.0,0.0,0.0,0.0,0.0,255.0,0.0,0.0,0.0,0.0,0.0,255.0,0.0,0.0,0.0,0.0,0.0,0.0,0.0,0.0,3,0,0
S01_day2,S01,057_rest_57,rest,311,47100,47400,5,,,,,,,0,92.8,5.878775382679628,88.0,100.0,92.8,92.98602045468985,0.0,0.0,0.0,0.0,0.0,0.0,0.0,0.0,0.0,0.0,0.0,0.0,0.0,0.0,0.0,255.0,0.0,0.0,0.0,0.0,0.0,255.0,0.0,0.0,0.0,0.0,0.0,0.0,0.0,0.0,5,0,0
S01_day2,S01,057_rest_57,rest,312,47200,47500,10,,,,,,,0,91.4,8.200000000000001,82.0,102.0,91.4,91.76709649978037,0.0,0.0,0.0,0.0,0.0,0.0,0.0,0.0,0.0,0.0,0.0,0.0,0.0,0.0,0.0,255.0,0.0,0.0,0.0,0.0,0.0,255.0,0.0,0.0,0.0,0.0,0.0,0.0,0.0,0.0,10,0,0
S01_day2,S01,057_rest_57,rest,313,47300,47600,15,,,,,,,0,95.46666666666667,13.475244792664148,82.0,118.0,95.46666666666667,96.41300050650155,0.0,0.0,0.0,0.0,0.0,0.0,0.0,0.0,0.0,0.0,0.0,0.0,0.0,0.0,0.0,255.0,0.0,0.0,0.0,0.0,0.0,255.0,0.0,0.0,0.0,0.0,0.0,0.0,0.0,0.0,15,0,0
S01_day2,S01,057_rest_57,rest,314,47400,47700,11,,,,,,,0,100.45454545454545,18.9897754133095,82.0,137.0,100.45454545454545,102.23368951929335,0.0,0.0,0.0,0.0,0.0,0.0,0.0,0.0,0.0,0.0,0.0,0.0,0.0,0.0,0.0,255.0,0.0,0.0,0.0,0.0,0.0,255.0,0.0,0.0,0.0,0.0,0.0,0.0,0.0,0.0,11,0,0
S01_day2,S01,057_rest_57,rest,315,47500,47800,6,,,,,,,0,109.16666666666667,20.350402671418788,82.0,137.0,109.16666666666667,111.0472872248575,0.0,0.0,0.0,0.0,0.0,0.0,0.0,0.0,0.0,0.0,0.0,0.0,0.0,0.0,0.0,255.0,0.0,0.0,0.0,0.0,0.0,255.0,0.0,0.0,0.0,0.0,0.0,0.0,0.0,0.0,6,0,0
S01_day2,S01,057_rest_57,rest,316,47600,47900,1,,,,,,,0,137.0,0.0,137.0,137.0,137.0,137.0,0.0,0.0,0.0,0.0,0.0,0.0,0.0,0.0,0.0,0.0,0.0,0.0,0.0,0.0,0.0,255.0,0.0,0.0,0.0,0.0,0.0,255.0,0.0,0.0,0.0,0.0,0.0,0.0,0.0,0.0,1,0,0
S01_day2,S01,058_rest_58,rest,317,48000,48300,3,,,,,,,0,64.33333333333333,5.185449728701348,57.0,68.0,64.33333333333333,64.54197600528408,0.0,0.0,0.0,0.0,0.0,0.0,0.0,0.0,0.0,0.0,0.0,0.0,0.0,0.0,0.0,255.0,0.0,0.0,0.0,0.0,0.0,255.0,0.0,0.0,0.0,0.0,0.0,0.0,0.0,0.0,3,0,0
S01_day2,S01,058_rest_58,rest,318,48100,48400,8,,,,,,,0,58.375,5.786568499551353,53.0,68.0,58.375,58.66110295587699,0.0,0.0,0.0,0.0,0.0,0.0,0.0,0.0,0.0,0.0,0.0,0.0,0.0,0.0,0.0,255.0,0.0,0.0,0.0,0.0,0.0,255.0,0.0,0.0,0.0,0.0,0.0,0.0,0.0,0.0,8,0,0
S01_day2,S01,058_rest_58,rest,319,48200,48500,13,,,,,,,0,55.92307692307692,5.594798937220979,50.0,68.0,55.92307692307692,56.20224468553109,0.0,0.0,0.0,0.0,0.0,0.0,0.0,0.0,0.0,0.0,0.0,0.0,0.0,0.0,0.0,255.0,0.0,0.0,0.0,0.0,0.0,255.0,0.0,0.0,0.0,0.0,0.0,0.0,0.0,0.0,13,0,0
S01_day2,S01,058_rest_58,rest,320,48300,48600,14,,,,,,,0,51.142857142857146,4.703450752329808,41.0,57.0,51.142857142857146,51.358682671134446,0.0,0.0,0.0,0.0,0.0,0.0,0.0,0.0,0.0,0.0,0.0,0.0,0.0,0.0,0.0,255.0,0.0,0.0,0.0,0.0,0.0,255.0,0.0,0.0,0.0,0.0,0.0,0.0,0.0,0.0,14,0,0
S01_day2,S01,058_rest_58,rest,321,48400,48700,9,,,,,,,0,49.111111111111114,4.581228472908512,41.0,54.0,49.111111111111114,49.32432350158377,0.0,0.0,0.0,0.0,0.0,0.0,0.0,0.0,0.0,0.0,0.0,0.0,0.0,0.0,0.0,255.0,0.0,0.0,0.0,0.0,0.0,255.0,0.0,0.0,0.0,0.0,0.0,0.0,0.0,0.0,9,0,0
S01_day2,S01,058_rest_58,rest,322,48500,48800,4,,,,,,,0,45.5,4.5,41.0,50.0,45.5,45.721985958617324,0.0,0.0,0.0,0.0,0.0,0.0,0.0,0.0,0.0,0.0,0.0,0.0,0.0,0.0,0.0,255.0,0.0,0.0,0.0,0.0,0.0,255.0,0.0,0.0,0.0,0.0,0.0,0.0,0.0,0.0,4,0,0
S01_day2,S01,059_rest_59,rest,323,48900,49200,2,,,,,,,0,50.5,3.5,47.0,54.0,50.5,50.62114182829147,0.0,0.0,0.0,0.0,0.0,0.0,0.0,0.0,0.0,0.0,0.0,0.0,0.0,0.0,0.0,255.0,0.0,0.0,0.0,0.0,0.0,255.0,0.0,0.0,0.0,0.0,0.0,0.0,0.0,0.0,2,0,0
S01_day2,S01,059_rest_59,rest,324,49000,49300,7,,,,,,,0,49.0,2.6186146828319083,47.0,54.0,49.0,49.06992095833396,0.0,0.0,0.0,0.0,0.0,0.0,0.0,0.0,0.0,0.0,0.0,0.0,0.0,0.0,0.0,255.0,0.0,0.0,0.0,0.0,0.0,255.0,0.0,0.0,0.0,0.0,0.0,0.0,0.0,0.0,7,0,0
S01_day2,S01,059_rest_59,rest,325,49100,49400,12,,,,,,,0,48.916666666666664,2.8710721961587025,45.0,54.0,48.916666666666664,49.000850332757835,0.0,0.0,0.0,0.0,0.0,0.0,0.0,0.0,0.0,0.0,0.0,0.0,0.0,0.0,0.0,255.0,0.0,0.0,0.0,0.0,0.0,255.0,0.0,0.0,0.0,0.0,0.0,0.0,0.0,0.0,12,0,0
S01_day2,S01,059_rest_59,rest,326,49200,49500,14,,,,,,,0,48.57142857142857,2.351725376164904,45.0,52.0,48.57142857142857,48.62832801684925,0.0,0.0,0.0,0.0,0.0,0.0,0.0,0.0,0.0,0.0,0.0,0.0,0.0,0.0,0.0,255.0,0.0,0.0,0.0,0.0,0.0,255.0,0.0,0.0,0.0,0.0,0.0,0.0,0.0,0.0,14,0,0
S01_day2,S01,059_rest_59,rest,327,49300,49600,9,,,,,,,0,48.666666666666664,2.581988897471611,45.0,52.0,48.666666666666664,48.73511168665884,0.0,0.0,0.0,0.0,0.0,0.0,0.0,0.0,0.0,0.0,0.0,0.0,0.0,0.0,0.0,255.0,0.0,0.0,0.0,0.0,0.0,255.0,0.0,0.0,0.0,0.0,0.0,0.0,0.0,0.0,9,0,0
S01_day2,S01,059_rest_59,rest,328,49400,49700,4,,,,,,,0,48.5,1.5,47.0,50.0,48.5,48.52319033204639,0.0,0.0,0.0,0.0,0.0,0.0,0.0,0.0,0.0,0.0,0.0,0.0,0.0,0.0,0.0,255.0,0.0,0.0,0.0,0.0,0.0,255.0,0.0,0.0,0.0,0.0,0.0,0.0,0.0,0.0,4,0,0
S01_day2,S01,060_rest_60,rest,329,49800,50100,3,,,,,,,0,49.333333333333336,1.8856180831641267,48.0,52.0,49.333333333333336,49.36935621752965,0.0,0.0,0.0,0.0,0.0,0.0,0.0,0.0,0.0,0.0,0.0,0.0,0.0,0.0,0.0,255.0,0.0,0.0,0.0,0.0,0.0,255.0,0.0,0.0,0.0,0.0,0.0,0.0,0.0,0.0,3,0,0
S01_day2,S01,060_rest_60,rest,330,49900,50200,8,,,,,,,0,49.75,2.9047375096555625,46.0,54.0,49.75,49.83472684785179,0.0,0.0,0.0,0.0,0.0,0.0,0.0,0.0,0.0,0.0,0.0,0.0,0.0,0.0,0.0,255.0,0.0,0.0,0.0,0.0,0.0,255.0,0.0,0.0,0.0,0.0,0.0,0.0,0.0,0.0,8,0,0
S01_day2,S01,060_rest_60,rest,331,50000,50300,13,,,,,,,0,50.46153846153846,2.7348290514817197,46.0,54.0,50.46153846153846,50.53559294048259,0.0,0.0,0.0,0.0,0.0,0.0,0.0,0.0,0.0,0.0,0.0,0.0,0.0,0.0,0.0,255.0,0.0,0.0,0.0,0.0,0.0,255.0,0.0,0.0,0.0,0.0,0.0,0.0,0.0,0.0,13,0,0
S01_day2,S01,060_rest_60,rest,332,50100,50400,13,,,,,,,0,50.38461538461539,2.704368589422607,46.0,54.0,50.38461538461539,50.45714099037992,0.0,0.0,0.0,0.0,0.0,0.0,0.0,0.0,0.0,0.0,0.0,0.0,0.0,0.0,0.0,255.0,0.0,0.0,0.0,0.0,0.0,255.0,0.0,0.0,0.0,0.0,0.0,0.0,0.0,0.0,13,0,0
S01_day2,S01,060_rest_60,rest,333,50200,50500,8,,,,,,,0,50.625,2.1758618981911515,47.0,54.0,50.625,50.671737684827825,0.0,0.0,0.0,0.0,0.0,0.0,0.0,0.0,0.0,0.0,0.0,0.0,0.0,0.0,0.0,255.0,0.0,0.0,0.0,0.0,0.0,255.0,0.0,0.0,0.0,0.0,0.0,0.0,0.0,0.0,8,0,0
S01_day2,S01,060_rest_60,rest,334,50300,50600,3,,,,,,,0,49.0,1.4142135623730951,47.0,50.0,49.0,49.02040391510457,0.0,0.0,0.0,0.0,0.0,0.0,0.0,0.0,0.0,0.0,0.0,0.0,0.0,0.0,0.0,255.0,0.0,0.0,0.0,0.0,0.0,255.0,0.0,0.0,0.0,0.0,0.0,0.0,0.0,0.0,3,0,0
S01_day2,S01,061_rest_61,rest,335,50700,51000,5,,,,,,,0,44.4,2.244994432064365,42.0,47.0,44.4,44.45672052682249,0.0,0.0,0.0,0.0,0.0,0.0,0.0,0.0,0.0,0.0,0.0,0.0,0.0,0.0,0.0,255.0,0.0,0.0,0.0,0.0,0.0,255.0,0.0,0.0,0.0,0.0,0.0,0.0,0.0,0.0,5,0,0
S01_day2,S01,061_rest_61,rest,336,50800,51100,10,,,,,,,0,45.6,2.8705400188814645,42.0,52.0,45.6,45.6902615444473,0.0,0.0,0.0,0.0,0.0,0.0,0.0,0.0,0.0,0.0,0.0,0.0,0.0,0.0,0.0,255.0,0.0,0.0,0.0,0.0,0.0,255.0,0.0,0.0,0.0,0.0,0.0,0.0,0.0,0.0,10,0,0
S01_day2,S01,061_rest_61,rest,337,50900,51200,15,,,,,,,0,47.2,3.350621832834417,42.0,52.0,47.2,47.31877710451388,0.0,0.0,0.0,0.0,0.0,0.0,0.0,0.0,0.0,0.0,0.0,0.0,0.0,0.0,0.0,255.0,0.0,0.0,0.0,0.0,0.0,255.0,0.0,0.0,0.0,0.0,0.0,0.0,0.0,0.0,15,0,0
S01_day2,S01,061_rest_61,rest,338,51000,51300,10,,,,,,,0,48.6,2.90516780926679,44.0,52.0,48.6,48.68675384537359,0.0,0.0,0.0,0.0,0.0,0.0,0.0,0.0,0.0,0.0,0.0,0.0,0.0,0.0,0.0,255.0,0.0,0.0,0.0,0.0,0.0,255.0,0.0,0.0,0.0,0.0,0.0,0.0,0.0,0.0,10,0,0
S01_day2,S01,061_rest_61,rest,339,51100,51400,5,,,,,,,0,50.4,1.3564659966250536,49.0,52.0,50.4,50.41825066382212,0.0,0.0,0.0,0.0,0.0,0.0,0.0,0.0,0.0,0.0,0.0,0.0,0.0,0.0,0.0,255.0,0.0,0.0,0.0,0.0,0.0,255.0,0.0,0.0,0.0,0.0,0.0,0.0,0.0,0.0,5,0,0
S01_day2,S01,062_rest_62,rest,340,51800,52100,4,,,,,,,0,47.75,1.7853571071357126,45.0,50.0,47.75,47.783365306349026,0.0,0.0,0.0,0.0,0.0,0.0,0.0,0.0,0.0,0.0,0.0,0.0,0.0,0.0,0.0,255.0,0.0,0.0,0.0,0.0,0.0,255.0,0.0,0.0,0.0,0.0,0.0,0.0,0.0,0.0,4,0,0
S01_day2,S01,062_rest_62,rest,341,51900,52200,9,,,,,,,0,46.888888888888886,2.282515398241571,45.0,51.0,46.888888888888886,46.94441157132314,0.0,0.0,0.0,0.0,0.0,0.0,0.0,0.0,0.0,0.0,0.0,0.0,0.0,0.0,0.0,255.0,0.0,0.0,0.0,0.0,0.0,255.0,0.0,0.0,0.0,0.0,0.0,0.0,0.0,0.0,9,0,0
S01_day2,S01,062_rest_62,rest,342,52000,52300,14,,,,,,,0,48.5,3.0413812651491097,45.0,55.0,48.5,48.595267259271246,0.0,0.0,0.0,0.0,0.0,0.0,0.0,0.0,0.0,0.0,0.0,0.0,0.0,0.0,0.0,255.0,0.0,0.0,0.0,0.0,0.0,255.0,0.0,0.0,0.0,0.0,0.0,0.0,0.0,0.0,14,0,0
S01_day2,S01,062_rest_62,rest,343,52100,52400,15,,,,,,,0,50.733333333333334,3.8895872388839523,45.0,55.0,50.733333333333334,50.882216932834204,0.0,0.0,0.0,0.0,0.0,0.0,0.0,0.0,0.0,0.0,0.0,0.0,0.0,0.0,0.0,255.0,0.0,0.0,0.0,0.0,0.0,255.0,0.0,0.0,0.0,0.0,0.0,0.0,0.0,0.0,15,0,0
S01_day2,S01,062_rest_62,rest,344,52200,52500,15,,,,,,,0,53.6,1.9595917942265426,50.0,56.0,53.6,53.63580893395755,0.0,0.0,0.0,0.0,0.0,0.0,0.0,0.0,0.0,0.0,0.0,0.0,0.0,0.0,0.0,255.0,0.0,0.0,0.0,0.0,0.0,255.0,0.0,0.0,0.0,0.0,0.0,0.0,0.0,0.0,15,0,0
S01_day2,S01,062_rest_62,rest,345,52300,52600,12,,,,,,,0,54.916666666666664,0.759202798262025,54.0,56.0,54.916666666666664,54.92191426622588,0.0,0.0,0.0,0.0,0.0,0.0,0.0,0.0,0.0,0.0,0.0,0.0,0.0,0.0,0.0,255.0,0.0,0.0,0.0,0.0,0.0,255.0,0.0,0.0,0.0,0.0,0.0,0.0,0.0,0.0,12,0,0
S01_day2,S01,062_rest_62,rest,346,52400,52700,7,,,,,,,0,55.142857142857146,0.832993127835043,54.0,56.0,55.142857142857146,55.14914841979495,0.0,0.0,0.0,0.0,0.0,0.0,0.0,0.0,0.0,0.0,0.0,0.0,0.0,0.0,0.0,255.0,0.0,0.0,0.0,0.0,0.0,255.0,0.0,0.0,0.0,0.0,0.0,0.0,0.0,0.0,7,0,0
S01_day2,S01,062_rest_62,rest,347,52500,52800,2,,,,,,,0,56.0,0.0,56.0,56.0,56.0,56.0,0.0,0.0,0.0,0.0,0.0,0.0,0.0,0.0,0.0,0.0,0.0,0.0,0.0,0.0,0.0,255.0,0.0,0.0,0.0,0.0,0.0,255.0,0.0,0.0,0.0,0.0,0.0,0.0,0.0,0.0,2,0,0
S01_day2,S01,063_rest_63,rest,348,53200,53500,1,,,,,,,0,226.0,0.0,226.0,226.0,226.0,226.0,0.0,0.0,0.0,0.0,0.0,0.0,0.0,0.0,0.0,0.0,0.0,0.0,0.0,0.0,0.0,255.0,0.0,0.0,0.0,0.0,0.0,255.0,0.0,0.0,0.0,0.0,0.0,0.0,0.0,0.0,1,0,0
S01_day2,S01,063_rest_63,rest,349,53300,53600,6,,,,,,,0,195.16666666666666,31.29119506968196,159.0,226.0,195.16666666666666,197.65921852184547,0.0,0.0,0.0,0.0,0.0,0.0,0.0,0.0,0.0,0.0,0.0,0.0,0.0,0.0,0.0,255.0,0.0,0.0,0.0,0.0,0.0,255.0,0.0,0.0,0.0,0.0,0.0,0.0,0.0,0.0,6,0,0
S01_day2,S01,063_rest_63,rest,350,53400,53700,11,,,,,,,0,183.36363636363637,27.21721623355578,158.0,226.0,183.36363636363637,185.37259775921575,0.0,0.0,0.0,0.0,0.0,0.0,0.0,0.0,0.0,0.0,0.0,0.0,0.0,0.0,0.0,255.0,0.0,0.0,0.0,0.0,0.0,255.0,0.0,0.0,0.0,0.0,0.0,0.0,0.0,0.0,11,0,0
S01_day2,S01,063_rest_63,rest,351,53500,53800,15,,,,,,,0,172.4,24.448040139583107,145.0,226.0,172.4,174.1248594160715,0.0,0.0,0.0,0.0,0.0,0.0,0.0,0.0,0.0,0.0,0.0,0.0,0.0,0.0,0.0,255.0,0.0,0.0,0.0,0.0,0.0,255.0,0.0,0.0,0.0,0.0,0.0,0.0,0.0,0.0,15,0,0
S01_day2,S01,063_rest_63,rest,352,53600,53900,10,,,,,,,0,164.1,14.71359915180511,145.0,180.0,164.1,164.75830783301944,0.0,0.0,0.0,0.0,0.0,0.0,0.0,0.0,0.0,0.0,0.0,0.0,0.0,0.0,0.0,255.0,0.0,0.0,0.0,0.0,0.0,255.0,0.0,0.0,0.0,0.0,0.0,0.0,0.0,0.0,10,0,0
S01_day2,S01,063_rest_63,rest,353,53700,54000,5,,,,,,,0,159.0,17.146428199482248,145.0,180.0,159.0,159.92185591719476,0.0,0.0,0.0,0.0,0.0,0.0,0.0,0.0,0.0,0.0,0.0,0.0,0.0,0.0,0.0,255.0,0.0,0.0,0.0,0.0,0.0,255.0,0.0,0.0,0.0,0.0,0.0,0.0,0.0,0.0,5,0,0
S01_day2,S01,064_rest_64,rest,354,54200,54500,5,,,,,,,0,71.2,0.9797958971132712,70.0,72.0,71.2,71.20674125390096,0.0,0.0,0.0,0.0,0.0,0.0,0.0,0.0,0.0,0.0,0.0,0.0,0.0,0.0,0.0,255.0,0.0,0.0,0.0,0.0,0.0,255.0,0.0,0.0,0.0,0.0,0.0,0.0,0.0,0.0,5,0,0
S01_day2,S01,064_rest_64,rest,355,54300,54600,10,,,,,,,0,64.8,6.584831053261731,56.0,72.0,64.8,65.13370863078502,0.0,0.0,0.0,0.0,0.0,0.0,0.0,0.0,0.0,0.0,0.0,0.0,0.0,0.0,0.0,255.0,0.0,0.0,0.0,0.0,0.0,255.0,0.0,0.0,0.0,0.0,0.0,0.0,0.0,0.0,10,0,0
S01_day2,S01,064_rest_64,rest,356,54400,54700,15,,,,,,,0,62.46666666666667,6.611774009715967,55.0,72.0,62.46666666666667,62.81560315717744,0.0,0.0,0.0,0.0,0.0,0.0,0.0,0.0,0.0,0.0,0.0,0.0,0.0,0.0,0.0,255.0,0.0,0.0,0.0,0.0,0.0,255.0,0.0,0.0,0.0,0.0,0.0,0.0,0.0,0.0,15,0,0
S01_day2,S01,064_rest_64,rest,357,54500,54800,15,,,,,,,0,64.33333333333333,11.031268688998964,55.0,90.0,64.33333333333333,65.27225035699831,0.0,0.0,0.0,0.0,0.0,0.0,0.0,0.0,0.0,0.0,0.0,0.0,0.0,0.0,0.0,255.0,0.0,0.0,0.0,0.0,0.0,255.0,0.0,0.0,0.0,0.0,0.0,0.0,0.0,0.0,15,0,0
S01_day2,S01,064_rest_64,rest,358,54600,54900,15,,,,,,,0,68.06666666666666,10.939022909849957,55.0,90.0,68.06666666666666,68.94007059274986,0.0,0.0,0.0,0.0,0.0,0.0,0.0,0.0,0.0,0.0,0.0,0.0,0.0,0.0,0.0,255.0,0.0,0.0,0.0,0.0,0.0,255.0,0.0,0.0,0.0,0.0,0.0,0.0,0.0,0.0,15,0,0
S01_day2,S01,064_rest_64,rest,359,54700,55000,11,,,,,,,0,72.0909090909091,9.91284332620653,61.0,90.0,72.0909090909091,72.76924924969087,0.0,0.0,0.0,0.0,0.0,0.0,0.0,0.0,0.0,0.0,0.0,0.0,0.0,0.0,0.0,255.0,0.0,0.0,0.0,0.0,0.0,255.0,0.0,0.0,0.0,0.0,0.0,0.0,0.0,0.0,11,0,0
S01_day2,S01,064_rest_64,rest,360,54800,55100,6,,,,,,,0,68.16666666666667,7.033649282003065,61.0,78.0,68.16666666666667,68.52858284443555,0.0,0.0,0.0,0.0,0.0,0.0,0.0,0.0,0.0,0.0,0.0,0.0,0.0,0.0,0.0,255.0,0.0,0.0,0.0,0.0,0.0,255.0,0.0,0.0,0.0,0.0,0.0,0.0,0.0,0.0,6,0,0
S01_day2,S01,064_rest_64,rest,361,54900,55200,1,,,,,,,0,61.0,0.0,61.0,61.0,61.0,61.0,0.0,0.0,0.0,0.0,0.0,0.0,0.0,0.0,0.0,0.0,0.0,0.0,0.0,0.0,0.0,255.0,0.0,0.0,0.0,0.0,0.0,255.0,0.0,0.0,0.0,0.0,0.0,0.0,0.0,0.0,1,0,0
S01_day2,S01,065_rest_65,rest,362,55500,55800,2,,,,,,,0,38.0,0.0,38.0,38.0,38.0,38.0,0.0,0.0,0.0,0.0,0.0,0.0,0.0,0.0,0.0,0.0,0.0,0.0,0.0,0.0,0.0,255.0,0.0,0.0,0.0,0.0,0.0,255.0,0.0,0.0,0.0,0.0,0.0,0.0,0.0,0.0,2,0,0
S01_day2,S01,065_rest_65,rest,363,55600,55900,7,,,,,,,0,35.285714285714285,3.730732816343027,31.0,39.0,35.285714285714285,35.482389998420345,0.0,0.0,0.0,0.0,0.0,0.0,0.0,0.0,0.0,0.0,0.0,0.0,0.0,0.0,0.0,255.0,0.0,0.0,0.0,0.0,0.0,255.0,0.0,0.0,0.0,0.0,0.0,0.0,0.0,0.0,7,0,0
S01_day2,S01,065_rest_65,rest,364,55700,56000,12,,,,,,,0,36.666666666666664,3.7932688922470144,31.0,41.0,36.666666666666664,36.86235658952549,0.0,0.0,0.0,0.0,0.0,0.0,0.0,0.0,0.0,0.0,0.0,0.0,0.0,0.0,0.0,255.0,0.0,0.0,0.0,0.0,0.0,255.0,0.0,0.0,0.0,0.0,0.0,0.0,0.0,0.0,12,0,0
S01_day2,S01,065_rest_65,rest,365,55800,56100,15,,,,,,,0,37.733333333333334,4.007770230717103,31.0,42.0,37.733333333333334,37.9455750604292,0.0,0.0,0.0,0.0,0.0,0.0,0.0,0.0,0.0,0.0,0.0,0.0,0.0,0.0,0.0,255.0,0.0,0.0,0.0,0.0,0.0,255.0,0.0,0.0,0.0,0.0,0.0,0.0,0.0,0.0,15,0,0
S01_day2,S01,065_rest_65,rest,366,55900,56200,11,,,,,,,0,39.72727272727273,2.631657241114569,35.0,42.0,39.72727272727273,39.81434186548634,0.0,0.0,0.0,0.0,0.0,0.0,0.0,0.0,0.0,0.0,0.0,0.0,0.0,0.0,0.0,255.0,0.0,0.0,0.0,0.0,0.0,255.0,0.0,0.0,0.0,0.0,0.0,0.0,0.0,0.0,11,0,0
S01_day2,S01,065_rest_65,rest,367,56000,56300,6,,,,,,,0,40.666666666666664,1.8856180831641267,38.0,42.0,40.666666666666664,40.710359042058734,0.0,0.0,0.0,0.0,0.0,0.0,0.0,0.0,0.0,0.0,0.0,0.0,0.0,0.0,0.0,255.0,0.0,0.0,0.0,0.0,0.0,255.0,0.0,0.0,0.0,0.0,0.0,0.0,0.0,0.0,6,0,0
S01_day2,S01,065_rest_65,rest,368,56100,56400,1,,,,,,,0,42.0,0.0,42.0,42.0,42.0,42.0,0.0,0.0,0.0,0.0,0.0,0.0,0.0,0.0,0.0,0.0,0.0,0.0,0.0,0.0,0.0,255.0,0.0,0.0,0.0,0.0,0.0,255.0,0.0,0.0,0.0,0.0,0.0,0.0,0.0,0.0,1,0,0
S01_day2,S01,066_rest_66,rest,369,56400,56700,5,,,,,,,0,52.6,0.4898979485566356,52.0,53.0,52.6,52.602281319349636,0.0,0.0,0.0,0.0,0.0,0.0,0.0,0.0,0.0,0.0,0.0,0.0,0.0,0.0,0.0,255.0,0.0,0.0,0.0,0.0,0.0,255.0,0.0,0.0,0.0,0.0,0.0,0.0,0.0,0.0,5,0,0
S01_day2,S01,066_rest_66,rest,370,56500,56800,10,,,,,,,0,50.6,3.7202150475476548,45.0,54.0,50.6,50.73657457889722,0.0,0.0,0.0,0.0,0.0,0.0,0.0,0.0,0.0,0.0,0.0,0.0,0.0,0.0,0.0,255.0,0.0,0.0,0.0,0.0,0.0,255.0,0.0,0.0,0.0,0.0,0.0,0.0,0.0,0.0,10,0,0
S01_day2,S01,066_rest_66,rest,371,56600,56900,15,,,,,,,0,49.86666666666667,3.403266404826725,45.0,54.0,49.86666666666667,49.98266366118023,0.0,0.0,0.0,0.0,0.0,0.0,0.0,0.0,0.0,0.0,0.0,0.0,0.0,0.0,0.0,255.0,0.0,0.0,0.0,0.0,0.0,255.0,0.0,0.0,0.0,0.0,0.0,0.0,0.0,0.0,15,0,0
S01_day2,S01,066_rest_66,rest,372,56700,57000,15,,,,,,,0,47.6,5.70146180086008,39.0,56.0,47.6,47.94024057789726,0.0,0.0,0.0,0.0,0.0,0.0,0.0,0.0,0.0,0.0,0.0,0.0,0.0,0.0,0.0,255.0,0.0,0.0,0.0,0.0,0.0,255.0,0.0,0.0,0.0,0.0,0.0,0.0,0.0,0.0,15,0,0
S01_day2,S01,066_rest_66,rest,373,56800,57100,15,,,,,,,0,48.266666666666666,5.322488974989886,39.0,56.0,48.266666666666666,48.55924216871593,0.0,0.0,0.0,0.0,0.0,0.0,0.0,0.0,0.0,0.0,0.0,0.0,0.0,0.0,0.0,255.0,0.0,0.0,0.0,0.0,0.0,255.0,0.0,0.0,0.0,0.0,0.0,0.0,0.0,0.0,15,0,0
S01_day2,S01,066_rest_66,rest,374,56900,57200,15,,,,,,,0,49.266666666666666,5.421766829692657,39.0,56.0,49.266666666666666,49.56409991112519,0.0,0.0,0.0,0.0,0.0,0.0,0.0,0.0,0.0,0.0,0.0,0.0,0.0,0.0,0.0,255.0,0.0,0.0,0.0,0.0,0.0,255.0,0.0,0.0,0.0,0.0,0.0,0.0,0.0,0.0,15,0,0
S01_day2,S01,066_rest_66,rest,375,57000,57300,13,,,,,,,0,52.0,2.2188007849009166,50.0,57.0,52.0,52.04731575137259,0.0,0.0,0.0,0.0,0.0,0.0,0.0,0.0,0.0,0.0,0.0,0.0,0.0,0.0,0.0,255.0,0.0,0.0,0.0,0.0,0.0,255.0,0.0,0.0,0.0,0.0,0.0,0.0,0.0,0.0,13,0,0
S01_day2,S01,066_rest_66,rest,376,57100,57400,8,,,,,,,0,52.875,2.4206145913796355,51.0,57.0,52.875,52.9303788008361,0.0,0.0,0.0,0.0,0.0,0.0,0.0,0.0,0.0,0.0,0.0,0.0,0.0,0.0,0.0,255.0,0.0,0.0,0.0,0.0,0.0,255.0,0.0,0.0,0.0,0.0,0.0,0.0,0.0,0.0,8,0,0
S01_day2,S01,066_rest_66,rest,377,57200,57500,3,,,,,,,0,55.333333333333336,2.357022603955158,52.0,57.0,55.333333333333336,55.383511385008205,0.0,0.0,0.0,0.0,0.0,0.0,0.0,0.0,0.0,0.0,0.0,0.0,0.0,0.0,0.0,255.0,0.0,0.0,0.0,0.0,0.0,255.0,0.0,0.0,0.0,0.0,0.0,0.0,0.0,0.0,3,0,0
S01_day2,S01,067_rest_67,rest,378,57400,57700,5,,,,,,,0,65.2,3.4292856398964497,61.0,68.0,65.2,65.29012176432205,0.0,0.0,0.0,0.0,0.0,0.0,0.0,0.0,0.0,0.0,0.0,0.0,0.0,0.0,0.0,255.0,0.0,0.0,0.0,0.0,0.0,255.0,0.0,0.0,0.0,0.0,0.0,0.0,0.0,0.0,5,0,0
S01_day2,S01,067_rest_67,rest,379,57500,57800,10,,,,,,,0,68.0,3.7682887362833544,61.0,72.0,68.0,68.10433172713759,0.0,0.0,0.0,0.0,0.0,0.0,0.0,0.0,0.0,0.0,0.0,0.0,0.0,0.0,0.0,255.0,0.0,0.0,0.0,0.0,0.0,255.0,0.0,0.0,0.0,0.0,0.0,0.0,0.0,0.0,10,0,0
S01_day2,S01,067_rest_67,rest,380,57600,57900,15,,,,,,,0,66.0,6.011100842053254,50.0,72.0,66.0,66.27317204822275,0.0,0.0,0.0,0.0,0.0,0.0,0.0,0.0,0.0,0.0,0.0,0.0,0.0,0.0,0.0,255.0,0.0,0.0,0.0,0.0,0.0,255.0,0.0,0.0,0.0,0.0,0.0,0.0,0.0,0.0,15,0,0
S01_day2,S01,067_rest_67,rest,381,57700,58000,15,,,,,,,0,58.86666666666667,12.49462106490451,35.0,72.0,58.86666666666667,60.17806909497845,0.0,0.0,0.0,0.0,0.0,0.0,0.0,0.0,0.0,0.0,0.0,0.0,0.0,0.0,0.0,255.0,0.0,0.0,0.0,0.0,0.0,255.0,0.0,0.0,0.0,0.0,0.0,0.0,0.0,0.0,15,0,0
S01_day2,S01,067_rest_67,rest,382,57800,58100,15,,,,,,,0,47.333333333333336,12.699956255392728,31.0,70.0,47.333333333333336,49.00748242190506,0.0,0.0,0.0,0.0,0.0,0.0,0.0,0.0,0.0,0.0,0.0,0.0,0.0,0.0,0.0,255.0,0.0,0.0,0.0,0.0,0.0,255.0,0.0,0.0,0.0,0.0,0.0,0.0,0.0,0.0,15,0,0
S01_day2,S01,067_rest_67,rest,383,57900,58200,15,,,,,,,0,40.86666666666667,6.810449487531805,31.0,50.0,40.86666666666667,41.430262691258264,0.0,0.0,0.0,0.0,0.0,0.0,0.0,0.0,0.0,0.0,0.0,0.0,0.0,0.0,0.0,255.0,0.0,0.0,0.0,0.0,0.0,255.0,0.0,0.0,0.0,0.0,0.0,0.0,0.0,0.0,15,0,0
S01_day2,S01,067_rest_67,rest,384,58000,58300,10,,,,,,,0,39.4,6.858571279792899,31.0,49.0,39.4,39.992499296743134,0.0,0.0,0.0,0.0,0.0,0.0,0.0,0.0,0.0,0.0,0.0,0.0,0.0,0.0,0.0,255.0,0.0,0.0,0.0,0.0,0.0,255.0,0.0,0.0,0.0,0.0,0.0,0.0,0.0,0.0,10,0,0
S01_day2,S01,067_rest_67,rest,385,58100,58400,5,,,,,,,0,42.6,5.4258639865002145,37.0,49.0,42.6,42.94414977619187,0.0,0.0,0.0,0.0,0.0,0.0,0.0,0.0,0.0,0.0,0.0,0.0,0.0,0.0,0.0,255.0,0.0,0.0,0.0,0.0,0.0,255.0,0.0,0.0,0.0,0.0,0.0,0.0,0.0,0.0,5,0,0
S01_day2,S01,068_rest_68,rest,386,58500,58800,5,,,,,,,0,50.0,8.94427190999916,40.0,60.0,50.0,50.79370039680118,0.0,0.0,0.0,0.0,0.0,0.0,0.0,0.0,0.0,0.0,0.0,0.0,0.0,0.0,0.0,255.0,0.0,0.0,0.0,0.0,0.0,255.0,0.0,0.0,0.0,0.0,0.0,0.0,0.0,0.0,5,0,0
S01_day2,S01,068_rest_68,rest,387,58600,58900,10,,,,,,,0,50.0,6.371812928829597,40.0,60.0,50.0,50.404364890354486,0.0,0.0,0.0,0.0,0.0,0.0,0.0,0.0,0.0,0.0,0.0,0.0,0.0,0.0,0.0,255.0,0.0,0.0,0.0,0.0,0.0,255.0,0.0,0.0,0.0,0.0,0.0,0.0,0.0,0.0,10,0,0
S01_day2,S01,068_rest_68,rest,388,58700,59000,14,,,,,,,0,48.42857142857143,6.218799674193976,40.0,60.0,48.42857142857143,48.82622246293481,0.0,0.0,0.0,0.0,0.0,0.0,0.0,0.0,0.0,0.0,0.0,0.0,0.0,0.0,0.0,255.0,0.0,0.0,0.0,0.0,0.0,255.0,0.0,0.0,0.0,0.0,0.0,0.0,0.0,0.0,14,0,0
S01_day2,S01,068_rest_68,rest,389,58800,59100,9,,,,,,,0,47.55555555555556,3.6851386559504444,41.0,51.0,47.55555555555556,47.69812481755558,0.0,0.0,0.0,0.0,0.0,0.0,0.0,0.0,0.0,0.0,0.0,0.0,0.0,0.0,0.0,255.0,0.0,0.0,0.0,0.0,0.0,255.0,0.0,0.0,0.0,0.0,0.0,0.0,0.0,0.0,9,0,0
S01_day2,S01,068_rest_68,rest,390,58900,59200,4,,,,,,,0,44.5,3.5,41.0,48.0,44.5,44.637428241331286,0.0,0.0,0.0,0.0,0.0,0.0,0.0,0.0,0.0,0.0,0.0,0.0,0.0,0.0,0.0,255.0,0.0,0.0,0.0,0.0,0.0,255.0,0.0,0.0,0.0,0.0,0.0,0.0,0.0,0.0,4,0,0
S01_day2,S01,069_rest_69,rest,391,59300,59600,2,,,,,,,0,49.0,5.0,44.0,54.0,49.0,49.25444142409901,0.0,0.0,0.0,0.0,0.0,0.0,0.0,0.0,0.0,0.0,0.0,0.0,0.0,0.0,0.0,255.0,0.0,0.0,0.0,0.0,0.0,255.0,0.0,0.0,0.0,0.0,0.0,0.0,0.0,0.0,2,0,0
S01_day2,S01,069_rest_69,rest,392,59400,59700,7,,,,,,,0,47.0,6.4142698058981855,39.0,54.0,47.0,47.435670725128965,0.0,0.0,0.0,0.0,0.0,0.0,0.0,0.0,0.0,0.0,0.0,0.0,0.0,0.0,0.0,255.0,0.0,0.0,0.0,0.0,0.0,255.0,0.0,0.0,0.0,0.0,0.0,0.0,0.0,0.0,7,0,0
S01_day2,S01,069_rest_69,rest,393,59500,59800,12,,,,,,,0,47.25,5.356071321407137,39.0,54.0,47.25,47.55260245244207,0.0,0.0,0.0,0.0,0.0,0.0,0.0,0.0,0.0,0.0,0.0,0.0,0.0,0.0,0.0,255.0,0.0,0.0,0.0,0.0,0.0,255.0,0.0,0.0,0.0,0.0,0.0,0.0,0.0,0.0,12,0,0
S01_day2,S01,069_rest_69,rest,394,59600,59900,15,,,,,,,0,49.666666666666664,5.895384258515772,39.0,56.0,49.666666666666664,50.015330982942956,0.0,0.0,0.0,0.0,0.0,0.0,0.0,0.0,0.0,0.0,0.0,0.0,0.0,0.0,0.0,255.0,0.0,0.0,0.0,0.0,0.0,255.0,0.0,0.0,0.0,0.0,0.0,0.0,0.0,0.0,15,0,0
S01_day2,S01,069_rest_69,rest,395,59700,60000,10,,,,,,,0,51.4,4.521061822182927,45.0,56.0,51.4,51.59844958911072,0.0,0.0,0.0,0.0,0.0,0.0,0.0,0.0,0.0,0.0,0.0,0.0,0.0,0.0,0.0,255.0,0.0,0.0,0.0,0.0,0.0,255.0,0.0,0.0,0.0,0.0,0.0,0.0,0.0,0.0,10,0,0
S01_day2,S01,069_rest_69,rest,396,59800,60100,5,,,,,,,0,55.2,0.9797958971132712,54.0,56.0,55.2,55.20869496736904,0.0,0.0,0.0,0.0,0.0,0.0,0.0,0.0,0.0,0.0,0.0,0.0,0.0,0.0,0.0,255.0,0.0,0.0,0.0,0.0,0.0,255.0,0.0,0.0,0.0,0.0,0.0,0.0,0.0,0.0,5,0,0
S01_day2,S01,070_rest_70,rest,397,60200,60500,5,,,,,,,0,42.0,6.0,34.0,49.0,42.0,42.42640687119285,0.0,0.0,0.0,0.0,0.0,0.0,0.0,0.0,0.0,0.0,0.0,0.0,0.0,0.0,0.0,255.0,0.0,0.0,0.0,0.0,0.0,255.0,0.0,0.0,0.0,0.0,0.0,0.0,0.0,0.0,5,0,0
S01_day2,S01,070_rest_70,rest,398,60300,60600,10,,,,,,,0,39.6,5.517245689653488,34.0,49.0,39.6,39.982496170199276,0.0,0.0,0.0,0.0,0.0,0.0,0.0,0.0,0.0,0.0,0.0,0.0,0.0,0.0,0.0,255.0,0.0,0.0,0.0,0.0,0.0,255.0,0.0,0.0,0.0,0.0,0.0,0.0,0.0,0.0,10,0,0
S01_day2,S01,070_rest_70,rest,399,60400,60700,15,,,,,,,0,41.06666666666667,4.999555535800713,34.0,49.0,41.06666666666667,41.369876319209204,0.0,0.0,0.0,0.0,0.0,0.0,0.0,0.0,0.0,0.0,0.0,0.0,0.0,0.0,0.0,255.0,0.0,0.0,0.0,0.0,0.0,255.0,0.0,0.0,0.0,0.0,0.0,0.0,0.0,0.0,15,0,0
S01_day2,S01,070_rest_70,rest,400,60500,60800,11,,,,,,,0,41.09090909090909,4.4200893749611705,34.0,46.0,41.09090909090909,41.32795663954365,0.0,0.0,0.0,0.0,0.0,0.0,0.0,0.0,0.0,0.0,0.0,0.0,0.0,0.0,0.0,255.0,0.0,0.0,0.0,0.0,0.0,255.0,0.0,0.0,0.0,0.0,0.0,0.0,0.0,0.0,11,0,0
S01_day2,S01,070_rest_70,rest,401,60600,60900,6,,,,,,,0,44.333333333333336,1.247219128924647,43.0,46.0,44.333333333333336,44.35087372307337,0.0,0.0,0.0,0.0,0.0,0.0,0.0,0.0,0.0,0.0,0.0,0.0,0.0,0.0,0.0,255.0,0.0,0.0,0.0,0.0,0.0,255.0,0.0,0.0,0.0,0.0,0.0,0.0,0.0,0.0,6,0,0
S01_day2,S01,070_rest_70,rest,402,60700,61000,1,,,,,,,0,46.0,0.0,46.0,46.0,46.0,46.0,0.0,0.0,0.0,0.0,0.0,0.0,0.0,0.0,0.0,0.0,0.0,0.0,0.0,0.0,0.0,255.0,0.0,0.0,0.0,0.0,0.0,255.0,0.0,0.0,0.0,0.0,0.0,0.0,0.0,0.0,1,0,0
S01_day2,S01,071_rest_71,rest,403,61100,61400,5,,,,,,,0,39.6,3.1368774282716245,36.0,43.0,39.6,39.72404813208241,0.0,0.0,0.0,0.0,0.0,0.0,0.0,0.0,0.0,0.0,0.0,0.0,0.0,0.0,0.0,255.0,0.0,0.0,0.0,0.0,0.0,255.0,0.0,0.0,0.0,0.0,0.0,0.0,0.0,0.0,5,0,0
S01_day2,S01,071_rest_71,rest,404,61200,61500,10,,,,,,,0,39.6,2.2891046284519194,36.0,43.0,39.6,39.66610643862087,0.0,0.0,0.0,0.0,0.0,0.0,0.0,0.0,0.0,0.0,0.0,0.0,0.0,0.0,0.0,255.0,0.0,0.0,0.0,0.0,0.0,255.0,0.0,0.0,0.0,0.0,0.0,0.0,0.0,0.0,10,0,0
S01_day2,S01,071_rest_71,rest,405,61300,61600,15,,,,,,,0,38.666666666666664,2.4404006956964173,35.0,43.0,38.666666666666664,38.74360162228941,0.0,0.0,0.0,0.0,0.0,0.0,0.0,0.0,0.0,0.0,0.0,0.0,0.0,0.0,0.0,255.0,0.0,0.0,0.0,0.0,0.0,255.0,0.0,0.0,0.0,0.0,0.0,0.0,0.0,0.0,15,0,0
S01_day2,S01,071_rest_71,rest,406,61400,61700,15,,,,,,,0,37.86666666666667,1.9275776393067947,35.0,40.0,37.86666666666667,37.91569595827037,0.0,0.0,0.0,0.0,0.0,0.0,0.0,0.0,0.0,0.0,0.0,0.0,0.0,0.0,0.0,255.0,0.0,0.0,0.0,0.0,0.0,255.0,0.0,0.0,0.0,0.0,0.0,0.0,0.0,0.0,15,0,0
S01_day2,S01,071_rest_71,rest,407,61500,61800,15,,,,,,,0,37.4,3.0724582991474434,33.0,45.0,37.4,37.5259909929105,0.0,0.0,0.0,0.0,0.0,0.0,0.0,0.0,0.0,0.0,0.0,0.0,0.0,0.0,0.0,255.0,0.0,0.0,0.0,0.0,0.0,255.0,0.0,0.0,0.0,0.0,0.0,0.0,0.0,0.0,15,0,0
S01_day2,S01,071_rest_71,rest,408,61600,61900,13,,,,,,,0,38.92307692307692,4.084897860723617,33.0,45.0,38.92307692307692,39.1368407985661,0.0,0.0,0.0,0.0,0.0,0.0,0.0,0.0,0.0,0.0,0.0,0.0,0.0,0.0,0.0,255.0,0.0,0.0,0.0,0.0,0.0,255.0,0.0,0.0,0.0,0.0,0.0,0.0,0.0,0.0,13,0,0
S01_day2,S01,071_rest_71,rest,409,61700,62000,8,,,,,,,0,40.0,4.663689526544408,33.0,45.0,40.0,40.27095727692601,0.0,0.0,0.0,0.0,0.0,0.0,0.0,0.0,0.0,0.0,0.0,0.0,0.0,0.0,0.0,255.0,0.0,0.0,0.0,0.0,0.0,255.0,0.0,0.0,0.0,0.0,0.0,0.0,0.0,0.0,8,0,0
S01_day2,S01,071_rest_71,rest,410,61800,62100,3,,,,,,,0,43.0,2.8284271247461903,39.0,45.0,43.0,43.09292285283048,0.0,0.0,0.0,0.0,0.0,0.0,0.0,0.0,0.0,0.0,0.0,0.0,0.0,0.0,0.0,255.0,0.0,0.0,0.0,0.0,0.0,255.0,0.0,0.0,0.0,0.0,0.0,0.0,0.0,0.0,3,0,0
S01_day2,S01,072_rest_72,rest,411,62100,62400,3,,,,,,,0,48.0,2.8284271247461903,44.0,50.0,48.0,48.08326112068523,0.0,0.0,0.0,0.0,0.0,0.0,0.0,0.0,0.0,0.0,0.0,0.0,0.0,0.0,0.0,255.0,0.0,0.0,0.0,0.0,0.0,255.0,0.0,0.0,0.0,0.0,0.0,0.0,0.0,0.0,3,0,0
S01_day2,S01,072_rest_72,rest,412,62200,62500,8,,,,,,,0,45.875,3.550968177835448,42.0,51.0,45.875,46.012226635971444,0.0,0.0,0.0,0.0,0.0,0.0,0.0,0.0,0.0,0.0,0.0,0.0,0.0,0.0,0.0,255.0,0.0,0.0,0.0,0.0,0.0,255.0,0.0,0.0,0.0,0.0,0.0,0.0,0.0,0.0,8,0,0
S01_day2,S01,072_rest_72,rest,413,62300,62600,13,,,,,,,0,47.46153846153846,4.143862646509425,42.0,56.0,47.46153846153846,47.64209515511708,0.0,0.0,0.0,0.0,0.0,0.0,0.0,0.0,0.0,0.0,0.0,0.0,0.0,0.0,0.0,255.0,0.0,0.0,0.0,0.0,0.0,255.0,0.0,0.0,0.0,0.0,0.0,0.0,0.0,0.0,13,0,0
S01_day2,S01,072_rest_72,rest,414,62400,62700,14,,,,,,,0,50.92857142857143,7.185941490301798,42.0,64.0,50.92857142857143,51.43303552054013,0.0,0.0,0.0,0.0,0.0,0.0,0.0,0.0,0.0,0.0,0.0,0.0,0.0,0.0,0.0,255.0,0.0,0.0,0.0,0.0,0.0,255.0,0.0,0.0,0.0,0.0,0.0,0.0,0.0,0.0,14,0,0
S01_day2,S01,072_rest_72,rest,415,62500,62800,9,,,,,,,0,54.44444444444444,6.291283407507585,46.0,64.0,54.44444444444444,54.80673113567145,0.0,0.0,0.0,0.0,0.0,0.0,0.0,0.0,0.0,0.0,0.0,0.0,0.0,0.0,0.0,255.0,0.0,0.0,0.0,0.0,0.0,255.0,0.0,0.0,0.0,0.0,0.0,0.0,0.0,0.0,9,0,0
S01_day2,S01,072_rest_72,rest,416,62600,62900,4,,,,,,,0,60.0,4.0,56.0,64.0,60.0,60.13318551349163,0.0,0.0,0.0,0.0,0.0,0.0,0.0,0.0,0.0,0.0,0.0,0.0,0.0,0.0,0.0,255.0,0.0,0.0,0.0,0.0,0.0,255.0,0.0,0.0,0.0,0.0,0.0,0.0,0.0,0.0,4,0,0
S01_day2,S01,073_rest_73,rest,417,62900,63200,3,,,,,,,0,38.0,0.0,38.0,38.0,38.0,38.0,0.0,0.0,0.0,0.0,0.0,0.0,0.0,0.0,0.0,0.0,0.0,0.0,0.0,0.0,0.0,255.0,0.0,0.0,0.0,0.0,0.0,255.0,0.0,0.0,0.0,0.0,0.0,0.0,0.0,0.0,3,0,0
S01_day2,S01,073_rest_73,rest,418,63000,63300,8,,,,,,,0,38.375,0.9921567416492215,38.0,41.0,38.375,38.38782359030009,0.0,0.0,0.0,0.0,0.0,0.0,0.0,0.0,0.0,0.0,0.0,0.0,0.0,0.0,0.0,255.0,0.0,0.0,0.0,0.0,0.0,255.0,0.0,0.0,0.0,0.0,0.0,0.0,0.0,0.0,8,0,0
S01_day2,S01,073_rest_73,rest,419,63100,63400,13,,,,,,,0,37.76923076923077,2.4854606802159247,33.0,41.0,37.76923076923077,37.850922151148545,0.0,0.0,0.0,0.0,0.0,0.0,0.0,0.0,0.0,0.0,0.0,0.0,0.0,0.0,0.0,255.0,0.0,0.0,0.0,0.0,0.0,255.0,0.0,0.0,0.0,0.0,0.0,0.0,0.0,0.0,13,0,0
S01_day2,S01,073_rest_73,rest,420,63200,63500,11,,,,,,,0,37.54545454545455,2.7423823870906103,33.0,41.0,37.54545454545455,37.64547540119288,0.0,0.0,0.0,0.0,0.0,0.0,0.0,0.0,0.0,0.0,0.0,0.0,0.0,0.0,0.0,255.0,0.0,0.0,0.0,0.0,0.0,255.0,0.0,0.0,0.0,0.0,0.0,0.0,0.0,0.0,11,0,0
S01_day2,S01,073_rest_73,rest,421,63300,63600,6,,,,,,,0,36.666666666666664,3.299831645537222,33.0,41.0,36.666666666666664,36.8148520753966,0.0,0.0,0.0,0.0,0.0,0.0,0.0,0.0,0.0,0.0,0.0,0.0,0.0,0.0,0.0,255.0,0.0,0.0,0.0,0.0,0.0,255.0,0.0,0.0,0.0,0.0,0.0,0.0,0.0,0.0,6,0,0
S01_day2,S01,073_rest_73,rest,422,63400,63700,1,,,,,,,0,36.0,0.0,36.0,36.0,36.0,36.0,0.0,0.0,0.0,0.0,0.0,0.0,0.0,0.0,0.0,0.0,0.0,0.0,0.0,0.0,0.0,255.0,0.0,0.0,0.0,0.0,0.0,255.0,0.0,0.0,0.0,0.0,0.0,0.0,0.0,0.0,1,0,0
S01_day2,S01,074_rest_74,rest,423,63600,63900,2,,,,,,,0,42.0,0.0,42.0,42.0,42.0,42.0,0.0,0.0,0.0,0.0,0.0,0.0,0.0,0.0,0.0,0.0,0.0,0.0,0.0,0.0,0.0,255.0,0.0,0.0,0.0,0.0,0.0,255.0,0.0,0.0,0.0,0.0,0.0,0.0,0.0,0.0,2,0,0
S01_day2,S01,074_rest_74,rest,424,63700,64000,7,,,,,,,0,37.285714285714285,3.010186786529354,35.0,42.0,37.285714285714285,37.40702760559457,0.0,0.0,0.0,0.0,0.0,0.0,0.0,0.0,0.0,0.0,0.0,0.0,0.0,0.0,0.0,255.0,0.0,0.0,0.0,0.0,0.0,255.0,0.0,0.0,0.0,0.0,0.0,0.0,0.0,0.0,7,0,0
S01_day2,S01,074_rest_74,rest,425,63800,64100,12,,,,,,,0,38.666666666666664,3.0912061651652345,35.0,43.0,38.666666666666664,38.79003308411411,0.0,0.0,0.0,0.0,0.0,0.0,0.0,0.0,0.0,0.0,0.0,0.0,0.0,0.0,0.0,255.0,0.0,0.0,0.0,0.0,0.0,255.0,0.0,0.0,0.0,0.0,0.0,0.0,0.0,0.0,12,0,0
S01_day2,S01,074_rest_74,rest,426,63900,64200,12,,,,,,,0,39.166666666666664,3.7601713908928263,35.0,45.0,39.166666666666664,39.346749124504136,0.0,0.0,0.0,0.0,0.0,0.0,0.0,0.0,0.0,0.0,0.0,0.0,0.0,0.0,0.0,255.0,0.0,0.0,0.0,0.0,0.0,255.0,0.0,0.0,0.0,0.0,0.0,0.0,0.0,0.0,12,0,0
S01_day2,S01,074_rest_74,rest,427,64000,64300,7,,,,,,,0,41.857142857142854,2.5872528966106905,39.0,45.0,41.857142857142854,41.93702762135492,0.0,0.0,0.0,0.0,0.0,0.0,0.0,0.0,0.0,0.0,0.0,0.0,0.0,0.0,0.0,255.0,0.0,0.0,0.0,0.0,0.0,255.0,0.0,0.0,0.0,0.0,0.0,0.0,0.0,0.0,7,0,0
S01_day2,S01,074_rest_74,rest,428,64100,64400,2,,,,,,,0,45.0,0.0,45.0,45.0,45.0,45.0,0.0,0.0,0.0,0.0,0.0,0.0,0.0,0.0,0.0,0.0,0.0,0.0,0.0,0.0,0.0,255.0,0.0,0.0,0.0,0.0,0.0,255.0,0.0,0.0,0.0,0.0,0.0,0.0,0.0,0.0,2,0,0
S01_day2,S01,075_rest_75,rest,429,64500,64800,2,,,,,,,0,34.0,0.0,34.0,34.0,34.0,34.0,0.0,0.0,0.0,0.0,0.0,0.0,0.0,0.0,0.0,0.0,0.0,0.0,0.0,0.0,0.0,255.0,0.0,0.0,0.0,0.0,0.0,255.0,0.0,0.0,0.0,0.0,0.0,0.0,0.0,0.0,2,0,0
S01_day2,S01,075_rest_75,rest,430,64600,64900,7,,,,,,,0,35.42857142857143,0.9035079029052513,34.0,36.0,35.42857142857143,35.4400902933387,0.0,0.0,0.0,0.0,0.0,0.0,0.0,0.0,0.0,0.0,0.0,0.0,0.0,0.0,0.0,255.0,0.0,0.0,0.0,0.0,0.0,255.0,0.0,0.0,0.0,0.0,0.0,0.0,0.0,0.0,7,0,0
S01_day2,S01,075_rest_75,rest,431,64700,65000,12,,,,,,,0,37.583333333333336,2.6601482832520613,34.0,41.0,37.583333333333336,37.6773583645846,0.0,0.0,0.0,0.0,0.0,0.0,0.0,0.0,0.0,0.0,0.0,0.0,0.0,0.0,0.0,255.0,0.0,0.0,0.0,0.0,0.0,255.0,0.0,0.0,0.0,0.0,0.0,0.0,0.0,0.0,12,0,0
S01_day2,S01,075_rest_75,rest,432,64800,65100,15,,,,,,,0,39.13333333333333,2.305548862105411,36.0,42.0,39.13333333333333,39.20119045811407,0.0,0.0,0.0,0.0,0.0,0.0,0.0,0.0,0.0,0.0,0.0,0.0,0.0,0.0,0.0,255.0,0.0,0.0,0.0,0.0,0.0,255.0,0.0,0.0,0.0,0.0,0.0,0.0,0.0,0.0,15,0,0
S01_day2,S01,075_rest_75,rest,433,64900,65200,15,,,,,,,0,41.46666666666667,1.892675942210452,40.0,46.0,41.46666666666667,41.50983819128505,0.0,0.0,0.0,0.0,0.0,0.0,0.0,0.0,0.0,0.0,0.0,0.0,0.0,0.0,0.0,255.0,0.0,0.0,0.0,0.0,0.0,255.0,0.0,0.0,0.0,0.0,0.0,0.0,0.0,0.0,15,0,0
S01_day2,S01,075_rest_75,rest,434,65000,65300,12,,,,,,,0,42.25,2.1262251370288454,40.0,46.0,42.25,42.30346715499018,0.0,0.0,0.0,0.0,0.0,0.0,0.0,0.0,0.0,0.0,0.0,0.0,0.0,0.0,0.0,255.0,0.0,0.0,0.0,0.0,0.0,255.0,0.0,0.0,0.0,0.0,0.0,0.0,0.0,0.0,12,0,0
S01_day2,S01,075_rest_75,rest,435,65100,65400,7,,,,,,,0,43.285714285714285,2.1189138534559038,41.0,46.0,43.285714285714285,43.337545582818336,0.0,0.0,0.0,0.0,0.0,0.0,0.0,0.0,0.0,0.0,0.0,0.0,0.0,0.0,0.0,255.0,0.0,0.0,0.0,0.0,0.0,255.0,0.0,0.0,0.0,0.0,0.0,0.0,0.0,0.0,7,0,0
S01_day2,S01,075_rest_75,rest,436,65200,65500,2,,,,,,,0,44.0,0.0,44.0,44.0,44.0,44.0,0.0,0.0,0.0,0.0,0.0,0.0,0.0,0.0,0.0,0.0,0.0,0.0,0.0,0.0,0.0,255.0,0.0,0.0,0.0,0.0,0.0,255.0,0.0,0.0,0.0,0.0,0.0,0.0,0.0,0.0,2,0,0
S01_day2,S01,076_rest_76,rest,437,65500,65800,4,,,,,,,0,48.5,0.8660254037844386,48.0,50.0,48.5,48.507731342539614,0.0,0.0,0.0,0.0,0.0,0.0,0.0,0.0,0.0,0.0,0.0,0.0,0.0,0.0,0.0,255.0,0.0,0.0,0.0,0.0,0.0,255.0,0.0,0.0,0.0,0.0,0.0,0.0,0.0,0.0,4,0,0
S01_day2,S01,076_rest_76,rest,438,65600,65900,9,,,,,,,0,48.111111111111114,1.286204100310025,46.0,50.0,48.111111111111114,48.1283007526064,0.0,0.0,0.0,0.0,0.0,0.0,0.0,0.0,0.0,0.0,0.0,0.0,0.0,0.0,0.0,255.0,0.0,0.0,0.0,0.0,0.0,255.0,0.0,0.0,0.0,0.0,0.0,0.0,0.0,0.0,9,0,0
S01_day2,S01,076_rest_76,rest,439,65700,66000,14,,,,,,,0,49.42857142857143,2.226922466874271,46.0,53.0,49.42857142857143,49.47871115078542,0.0,0.0,0.0,0.0,0.0,0.0,0.0,0.0,0.0,0.0,0.0,0.0,0.0,0.0,0.0,255.0,0.0,0.0,0.0,0.0,0.0,255.0,0.0,0.0,0.0,0.0,0.0,0.0,0.0,0.0,14,0,0
S01_day2,S01,076_rest_76,rest,440,65800,66100,15,,,,,,,0,49.6,3.0506829836393465,46.0,54.0,49.6,49.6937286452392,0.0,0.0,0.0,0.0,0.0,0.0,0.0,0.0,0.0,0.0,0.0,0.0,0.0,0.0,0.0,255.0,0.0,0.0,0.0,0.0,0.0,255.0,0.0,0.0,0.0,0.0,0.0,0.0,0.0,0.0,15,0,0
S01_day2,S01,076_rest_76,rest,441,65900,66200,10,,,,,,,0,50.5,3.2326459750489227,46.0,54.0,50.5,50.60335957226555,0.0,0.0,0.0,0.0,0.0,0.0,0.0,0.0,0.0,0.0,0.0,0.0,0.0,0.0,0.0,255.0,0.0,0.0,0.0,0.0,0.0,255.0,0.0,0.0,0.0,0.0,0.0,0.0,0.0,0.0,10,0,0
S01_day2,S01,076_rest_76,rest,442,66000,66300,5,,,,,,,0,49.2,3.919183588453085,46.0,54.0,49.2,49.35585071701227,0.0,0.0,0.0,0.0,0.0,0.0,0.0,0.0,0.0,0.0,0.0,0.0,0.0,0.0,0.0,255.0,0.0,0.0,0.0,0.0,0.0,255.0,0.0,0.0,0.0,0.0,0.0,0.0,0.0,0.0,5,0,0
S01_day2,S01,077_rest_77,rest,443,67000,67300,1,,,,,,,0,28.0,0.0,28.0,28.0,28.0,28.0,0.0,0.0,0.0,0.0,0.0,0.0,0.0,0.0,0.0,0.0,0.0,0.0,0.0,0.0,0.0,255.0,0.0,0.0,0.0,0.0,0.0,255.0,0.0,0.0,0.0,0.0,0.0,0.0,0.0,0.0,1,0,0
S01_day2,S01,077_rest_77,rest,444,67100,67400,6,,,,,,,0,30.166666666666668,1.950783318453271,27.0,32.0,30.166666666666668,30.22967636831948,0.0,0.0,0.0,0.0,0.0,0.0,0.0,0.0,0.0,0.0,0.0,0.0,0.0,0.0,0.0,255.0,0.0,0.0,0.0,0.0,0.0,255.0,0.0,0.0,0.0,0.0,0.0,0.0,0.0,0.0,6,0,0
S01_day2,S01,077_rest_77,rest,445,67200,67500,11,,,,,,,0,31.636363636363637,4.940973906073161,27.0,45.0,31.636363636363637,32.01988018829439,0.0,0.0,0.0,0.0,0.0,0.0,0.0,0.0,0.0,0.0,0.0,0.0,0.0,0.0,0.0,255.0,0.0,0.0,0.0,0.0,0.0,255.0,0.0,0.0,0.0,0.0,0.0,0.0,0.0,0.0,11,0,0
S01_day2,S01,077_rest_77,rest,446,67300,67600,15,,,,,,,0,36.13333333333333,7.265137453773481,27.0,46.0,36.13333333333333,36.85647839932622,0.0,0.0,0.0,0.0,0.0,0.0,0.0,0.0,0.0,0.0,0.0,0.0,0.0,0.0,0.0,255.0,0.0,0.0,0.0,0.0,0.0,255.0,0.0,0.0,0.0,0.0,0.0,0.0,0.0,0.0,15,0,0
S01_day2,S01,077_rest_77,rest,447,67400,67700,15,,,,,,,0,42.86666666666667,9.701317207243331,27.0,60.0,42.86666666666667,43.950729990145405,0.0,0.0,0.0,0.0,0.0,0.0,0.0,0.0,0.0,0.0,0.0,0.0,0.0,0.0,0.0,255.0,0.0,0.0,0.0,0.0,0.0,255.0,0.0,0.0,0.0,0.0,0.0,0.0,0.0,0.0,15,0,0
S01_day2,S01,077_rest_77,rest,448,67500,67800,15,,,,,,,0,52.2,8.870926295113343,40.0,64.0,52.2,52.94840255695476,0.0,0.0,0.0,0.0,0.0,0.0,0.0,0.0,0.0,0.0,0.0,0.0,0.0,0.0,0.0,255.0,0.0,0.0,0.0,0.0,0.0,255.0,0.0,0.0,0.0,0.0,0.0,0.0,0.0,0.0,15,0,0
S01_day2,S01,077_rest_77,rest,449,67600,67900,15,,,,,,,0,54.666666666666664,8.113089560840693,40.0,64.0,54.666666666666664,55.265420170904946,0.0,0.0,0.0,0.0,0.0,0.0,0.0,0.0,0.0,0.0,0.0,0.0,0.0,0.0,0.0,255.0,0.0,0.0,0.0,0.0,0.0,255.0,0.0,0.0,0.0,0.0,0.0,0.0,0.0,0.0,15,0,0
S01_day2,S01,077_rest_77,rest,450,67700,68000,11,,,,,,,0,55.18181818181818,7.986558956580872,41.0,64.0,55.18181818181818,55.7567770035014,0.0,0.0,0.0,0.0,0.0,0.0,0.0,0.0,0.0,0.0,0.0,0.0,0.0,0.0,0.0,255.0,0.0,0.0,0.0,0.0,0.0,255.0,0.0,0.0,0.0,0.0,0.0,0.0,0.0,0.0,11,0,0
S01_day2,S01,077_rest_77,rest,451,67800,68100,6,,,,,,,0,50.0,7.3484692283495345,41.0,59.0,50.0,50.53711507397311,0.0,0.0,0.0,0.0,0.0,0.0,0.0,0.0,0.0,0.0,0.0,0.0,0.0,0.0,0.0,255.0,0.0,0.0,0.0,0.0,0.0,255.0,0.0,0.0,0.0,0.0,0.0,0.0,0.0,0.0,6,0,0
S01_day2,S01,077_rest_77,rest,452,67900,68200,1,,,,,,,0,41.0,0.0,41.0,41.0,41.0,41.0,0.0,0.0,0.0,0.0,0.0,0.0,0.0,0.0,0.0,0.0,0.0,0.0,0.0,0.0,0.0,255.0,0.0,0.0,0.0,0.0,0.0,255.0,0.0,0.0,0.0,0.0,0.0,0.0,0.0,0.0,1,0,0
S01_day2,S01,078_rest_78,rest,453,68400,68700,3,,,,,,,0,38.666666666666664,0.9428090415820634,38.0,40.0,38.666666666666664,38.67815921162743,0.0,0.0,0.0,0.0,0.0,0.0,0.0,0.0,0.0,0.0,0.0,0.0,0.0,0.0,0.0,255.0,0.0,0.0,0.0,0.0,0.0,255.0,0.0,0.0,0.0,0.0,0.0,0.0,0.0,0.0,3,0,0
S01_day2,S01,078_rest_78,rest,454,68500,68800,8,,,,,,,0,39.25,8.407585860400118,20.0,49.0,39.25,40.1403786728526,0.0,0.0,0.0,0.0,0.0,0.0,0.0,0.0,0.0,0.0,0.0,0.0,0.0,0.0,0.0,255.0,0.0,0.0,0.0,0.0,0.0,255.0,0.0,0.0,0.0,0.0,0.0,0.0,0.0,0.0,8,0,0
S01_day2,S01,078_rest_78,rest,455,68600,68900,13,,,,,,,0,38.61538461538461,11.118511670864402,20.0,50.0,38.61538461538461,40.18419130415879,0.0,0.0,0.0,0.0,0.0,0.0,0.0,0.0,0.0,0.0,0.0,0.0,0.0,0.0,0.0,255.0,0.0,0.0,0.0,0.0,0.0,255.0,0.0,0.0,0.0,0.0,0.0,0.0,0.0,0.0,13,0,0
S01_day2,S01,078_rest_78,rest,456,68700,69000,15,,,,,,,0,41.733333333333334,11.386932081215829,20.0,50.0,41.733333333333334,43.25891045014117,0.0,0.0,0.0,0.0,0.0,0.0,0.0,0.0,0.0,0.0,0.0,0.0,0.0,0.0,0.0,255.0,0.0,0.0,0.0,0.0,0.0,255.0,0.0,0.0,0.0,0.0,0.0,0.0,0.0,0.0,15,0,0
S01_day2,S01,078_rest_78,rest,457,68800,69100,12,,,,,,,0,42.666666666666664,10.6092203085597,20.0,50.0,42.666666666666664,43.965895873961216,0.0,0.0,0.0,0.0,0.0,0.0,0.0,0.0,0.0,0.0,0.0,0.0,0.0,0.0,0.0,255.0,0.0,0.0,0.0,0.0,0.0,255.0,0.0,0.0,0.0,0.0,0.0,0.0,0.0,0.0,12,0,0
S01_day2,S01,078_rest_78,rest,458,68900,69200,7,,,,,,,0,46.285714285714285,3.730732816343027,42.0,50.0,46.285714285714285,46.43582360942588,0.0,0.0,0.0,0.0,0.0,0.0,0.0,0.0,0.0,0.0,0.0,0.0,0.0,0.0,0.0,255.0,0.0,0.0,0.0,0.0,0.0,255.0,0.0,0.0,0.0,0.0,0.0,0.0,0.0,0.0,7,0,0
S01_day2,S01,078_rest_78,rest,459,69000,69300,2,,,,,,,0,42.0,0.0,42.0,42.0,42.0,42.0,0.0,0.0,0.0,0.0,0.0,0.0,0.0,0.0,0.0,0.0,0.0,0.0,0.0,0.0,0.0,255.0,0.0,0.0,0.0,0.0,0.0,255.0,0.0,0.0,0.0,0.0,0.0,0.0,0.0,0.0,2,0,0
S01_day2,S01,079_rest_79,rest,460,69400,69700,4,,,,,,,0,30.75,0.4330127018922193,30.0,31.0,30.75,30.753048629363562,0.0,0.0,0.0,0.0,0.0,0.0,0.0,0.0,0.0,0.0,0.0,0.0,0.0,0.0,0.0,255.0,0.0,0.0,0.0,0.0,0.0,255.0,0.0,0.0,0.0,0.0,0.0,0.0,0.0,0.0,4,0,0
S01_day2,S01,079_rest_79,rest,461,69500,69800,9,,,,,,,0,31.666666666666668,2.3570226039551585,30.0,36.0,31.666666666666668,31.75426480542942,0.0,0.0,0.0,0.0,0.0,0.0,0.0,0.0,0.0,0.0,0.0,0.0,0.0,0.0,0.0,255.0,0.0,0.0,0.0,0.0,0.0,255.0,0.0,0.0,0.0,0.0,0.0,0.0,0.0,0.0,9,0,0
S01_day2,S01,079_rest_79,rest,462,69600,69900,14,,,,,,,0,32.42857142857143,3.0405423791132518,30.0,38.0,32.42857142857143,32.570801998985885,0.0,0.0,0.0,0.0,0.0,0.0,0.0,0.0,0.0,0.0,0.0,0.0,0.0,0.0,0.0,255.0,0.0,0.0,0.0,0.0,0.0,255.0,0.0,0.0,0.0,0.0,0.0,0.0,0.0,0.0,14,0,0
S01_day2,S01,079_rest_79,rest,463,69700,70000,15,,,,,,,0,33.53333333333333,3.343982987729188,30.0,38.0,33.53333333333333,33.69965380633259,0.0,0.0,0.0,0.0,0.0,0.0,0.0,0.0,0.0,0.0,0.0,0.0,0.0,0.0,0.0,255.0,0.0,0.0,0.0,0.0,0.0,255.0,0.0,0.0,0.0,0.0,0.0,0.0,0.0,0.0,15,0,0
S01_day2,S01,079_rest_79,rest,464,69800,70100,15,,,,,,,0,34.46666666666667,3.8273866918419532,30.0,40.0,34.46666666666667,34.67852361332587,0.0,0.0,0.0,0.0,0.0,0.0,0.0,0.0,0.0,0.0,0.0,0.0,0.0,0.0,0.0,255.0,0.0,0.0,0.0,0.0,0.0,255.0,0.0,0.0,0.0,0.0,0.0,0.0,0.0,0.0,15,0,0
S01_day2,S01,079_rest_79,rest,465,69900,70200,15,,,,,,,0,34.93333333333333,3.2138588781850532,30.0,40.0,34.93333333333333,35.08085897846099,0.0,0.0,0.0,0.0,0.0,0.0,0.0,0.0,0.0,0.0,0.0,0.0,0.0,0.0,0.0,255.0,0.0,0.0,0.0,0.0,0.0,255.0,0.0,0.0,0.0,0.0,0.0,0.0,0.0,0.0,15,0,0
S01_day2,S01,079_rest_79,rest,466,70000,70300,13,,,,,,,0,35.30769230769231,3.047940424024454,30.0,40.0,35.30769230769231,35.43900502162944,0.0,0.0,0.0,0.0,0.0,0.0,0.0,0.0,0.0,0.0,0.0,0.0,0.0,0.0,0.0,255.0,0.0,0.0,0.0,0.0,0.0,255.0,0.0,0.0,0.0,0.0,0.0,0.0,0.0,0.0,13,0,0
S01_day2,S01,079_rest_79,rest,467,70100,70400,8,,,,,,,0,35.375,1.5761900266148114,34.0,39.0,35.375,35.41009742997045,0.0,0.0,0.0,0.0,0.0,0.0,0.0,0.0,0.0,0.0,0.0,0.0,0.0,0.0,0.0,255.0,0.0,0.0,0.0,0.0,0.0,255.0,0.0,0.0,0.0,0.0,0.0,0.0,0.0,0.0,8,0,0
S01_day2,S01,079_rest_79,rest,468,70200,70500,3,,,,,,,0,35.666666666666664,2.357022603955158,34.0,39.0,35.666666666666664,35.74446344074375,0.0,0.0,0.0,0.0,0.0,0.0,0.0,0.0,0.0,0.0,0.0,0.0,0.0,0.0,0.0,255.0,0.0,0.0,0.0,0.0,0.0,255.0,0.0,0.0,0.0,0.0,0.0,0.0,0.0,0.0,3,0,0
S01_day2,S01,080_rest_80,rest,469,70900,71200,5,,,,,,,0,30.2,2.5612496949731396,28.0,35.0,30.2,30.308414673156364,0.0,0.0,0.0,0.0,0.0,0.0,0.0,0.0,0.0,0.0,0.0,0.0,0.0,0.0,0.0,255.0,0.0,0.0,0.0,0.0,0.0,255.0,0.0,0.0,0.0,0.0,0.0,0.0,0.0,0.0,5,0,0
S01_day2,S01,080_rest_80,rest,470,71000,71300,10,,,,,,,0,31.4,2.690724809414742,28.0,35.0,31.4,31.515075757484702,0.0,0.0,0.0,0.0,0.0,0.0,0.0,0.0,0.0,0.0,0.0,0.0,0.0,0.0,0.0,255.0,0.0,0.0,0.0,0.0,0.0,255.0,0.0,0.0,0.0,0.0,0.0,0.0,0.0,0.0,10,0,0
